time (s)	magX	magY	magZ
2472.628429	-195.495041	125.554062	90.001175
2472.631806	-193.624802	124.268265	87.780251
2472.635158	-191.812988	123.157806	84.741089
2472.638480	-189.708939	121.638229	83.046173
2472.641883	-187.663361	120.878433	80.825256
2472.645187	-185.559326	119.241959	78.662766
2472.648530	-184.331985	118.774399	76.500298
2472.651823	-183.046173	118.423721	74.863823
2472.655179	-181.059036	117.371719	72.584457
2472.658535	-179.539459	115.852127	71.532440
2472.661847	-177.552322	115.150787	69.369957
2472.665181	-176.500305	114.215652	68.551720
2472.668572	-174.513153	113.572769	66.506142
2472.671870	-172.526016	112.403854	65.103455
2472.675197	-171.649338	111.994736	63.992989
2472.678563	-170.071304	110.241379	62.824081
2472.681872	-169.545303	110.299828	61.304504
2472.685253	-167.908829	109.306252	59.726471
2472.688561	-165.980133	108.195793	59.025131
2472.691899	-164.635895	106.909988	57.564003
2472.695262	-164.051437	106.734657	56.804207
2472.698646	-162.940979	106.150200	55.459969
2472.701961	-161.830505	104.572174	54.758621
2472.705301	-161.246063	104.104614	53.472824
2472.708667	-159.784927	102.994156	52.479256
2472.711993	-159.784927	102.234360	51.661018
2472.715355	-158.265350	101.533020	50.141441
2472.718699	-157.271774	100.597893	49.615425
2472.722062	-156.862656	99.721214	48.738754
2472.725384	-156.102875	99.078308	47.511398
2472.728703	-155.167755	98.201630	47.102280
2472.732100	-154.700180	98.026299	46.576271
2472.735396	-153.998840	97.500290	45.348923
2472.738772	-152.888367	96.682060	45.115143
2472.742060	-152.128586	95.980713	44.998253
2472.745414	-151.310349	95.513153	43.712456
2472.748788	-150.959686	94.811806	43.069550
2472.752112	-150.082993	94.987144	42.952660
2472.755421	-149.323196	94.285797	42.368202
2472.758877	-149.089417	94.052017	42.368202
2472.762171	-148.154297	93.759789	40.907066
2472.765492	-147.569855	93.584457	40.790176
2472.768413	-147.511398	93.526009	40.614845
2472.772153	-146.810059	92.941544	40.439507
2472.775087	-146.517822	92.707764	40.030396
2472.778496	-146.050262	92.357101	39.329048
2472.781793	-145.816483	92.707764	39.387489
2472.785145	-145.524261	93.233780	39.329048
2472.788482	-145.465820	93.058441	37.809471
2472.791834	-144.647583	92.649330	38.686150
2472.795186	-144.004684	92.766212	38.510811
2472.798515	-144.238464	92.415550	38.277031
2472.801840	-144.296906	92.590881	37.692581
2472.805284	-143.770905	92.766212	37.984802
2472.808591	-143.303345	92.532433	37.575691
2472.811943	-143.303345	92.649330	37.517242
2472.815336	-143.361786	92.123322	37.400352
2472.818604	-143.069550	92.824661	37.692581
2472.821970	-142.894226	92.649330	37.751022
2472.825281	-143.244888	92.123322	37.049675
2472.828641	-143.478668	92.181763	36.523674
2472.831972	-143.712448	92.006424	37.867912
2472.835315	-143.712448	92.357101	37.692581
2472.838634	-144.004684	92.824661	37.341904
2472.842045	-143.946228	92.298653	37.458794
2472.845362	-144.706024	92.123322	37.634132
2472.848691	-145.115143	92.357101	37.634132
2472.851988	-144.881363	92.415550	38.218582
2472.855289	-145.232040	92.064873	38.627701
2472.858662	-145.290482	91.889534	38.277031
2472.861966	-145.816483	92.181763	39.445938
2472.865334	-146.400940	92.532433	39.445938
2472.868609	-146.868500	92.473984	39.212158
2472.871992	-147.569855	93.058441	40.264175
2472.875300	-147.102280	93.058441	40.147285
2472.878590	-148.037415	93.409119	40.907066
2472.881920	-148.563416	93.233780	41.257744
2472.885259	-149.206314	94.636467	40.907066
2472.888564	-150.024567	94.578026	41.783752
2472.892020	-149.907669	95.045593	42.134422
2472.895338	-150.609009	95.279373	42.718880
2472.898632	-151.368805	96.097603	43.361778
2472.901970	-151.836365	96.448280	44.121567
2472.905323	-152.070145	97.441841	44.706017
2472.908604	-152.888367	97.734070	45.874924
2472.912022	-153.765060	98.435417	46.167160
2472.915364	-154.700180	99.487434	46.985390
2472.918743	-154.524841	100.305664	47.862068
2472.922092	-155.693741	101.007011	48.271187
2472.925030	-156.395096	100.948563	49.732323
2472.928350	-157.914673	102.409698	49.966103
2472.931719	-159.025131	103.111038	51.076561
2472.935042	-159.668045	104.046165	51.894798
2472.938412	-160.778503	105.156639	53.122154
2472.941747	-161.830505	105.565750	54.174171
2472.945088	-162.940979	106.383980	55.576859
2472.948427	-163.934540	107.260666	56.395096
2472.951800	-165.161896	108.078896	57.154877
2472.955133	-166.447708	109.130920	58.791351
2472.958543	-167.850388	108.955574	59.843369
2472.961840	-169.194626	110.299828	61.479843
2472.965168	-170.947998	111.468735	62.765640
2472.968539	-171.941559	111.585617	64.577438
2472.971843	-173.636475	112.345413	65.278786
2472.975203	-175.506729	113.338989	66.506142
2472.978514	-176.909409	114.449448	68.668617
2472.981888	-178.779663	114.858551	71.064873
2472.985207	-180.240799	116.378143	72.409119
2472.988510	-182.344833	117.079483	74.746933
2472.991826	-183.689072	118.365280	76.266510
2472.995145	-185.442444	119.300400	78.370544
2472.998471	-187.254257	120.177094	79.714783
2473.001909	-189.416733	121.638229	82.052597
2473.005192	-190.585632	122.222672	83.455284
2473.008580	-192.689667	123.391586	86.143776
2473.011914	-194.618362	124.618942	87.546463
2473.015258	-196.488617	126.196960	89.884277
2473.018582	-198.066635	127.599640	92.923439
2473.021988	-200.112213	128.593216	95.495033
2473.025275	-202.333160	129.879028	97.832848
2473.028611	-203.618942	131.866150	101.047348
2473.031968	-206.482758	133.970184	103.911156
2473.035312	-208.060776	135.957336	107.184113
2473.038613	-209.697266	137.535355	109.931038
2473.041929	-212.970200	139.054947	113.145531
2473.045284	-214.723557	140.866745	116.301582
2473.048669	-216.827591	142.561661	120.334312
2473.051970	-218.756287	144.548798	123.548805
2473.055303	-221.269424	146.302170	126.821739
2473.058616	-223.431915	148.523087	131.263580
2473.061909	-225.652847	150.101120	134.536514
2473.065348	-227.815308	152.380478	138.218582
2473.068621	-229.919357	153.490936	142.543533
2473.071924	-232.315598	156.062531	147.277603
2473.075310	-235.179443	157.465225	151.368790
2473.078642	-237.984818	159.218582	156.804199
2473.081970	-240.673294	161.264175	160.895370
2473.085322	-243.127991	162.959091	166.213913
2473.088594	-245.465820	164.887787	171.707764
2473.091897	-248.504974	166.641144	176.850952
2473.095203	-251.135010	168.452957	181.585022
2473.098583	-253.648163	170.440094	187.838669
2473.101923	-256.804230	172.544128	194.033890
2473.105237	-259.434265	174.122147	199.703094
2473.108604	-262.648743	175.291061	205.547623
2473.111910	-265.804810	177.102859	211.859726
2473.115229	-268.201050	178.563995	218.347168
2473.118549	-271.473999	181.077148	225.243713
2473.121845	-274.630035	182.538284	232.432480
2473.125635	-277.435425	184.583878	239.387497
2473.129356	-279.948578	185.928101	246.517838
2473.132694	-282.695496	188.382812	254.232590
2473.136023	-285.442444	189.843948	263.408539
2473.139355	-287.955597	192.298645	271.064880
2473.142717	-290.585632	193.292236	280.182343
2473.146021	-293.332581	195.513153	288.540039
2473.149358	-295.553497	197.324936	296.897736
2473.152708	-297.715973	199.545883	306.307434
2473.156043	-299.878448	202.292801	315.015778
2473.159353	-302.216248	204.455276	325.419067
2473.162686	-304.378723	206.208664	335.647003
2473.166027	-305.547638	207.903549	346.810059
2473.169358	-307.125641	210.299820	357.096466
2473.172721	-308.762146	212.286972	366.973694
2473.176021	-310.340149	213.748093	378.545898
2473.179353	-311.392181	216.027481	389.182953
2473.182687	-312.327301	218.248398	400.579803
2473.186033	-313.145538	219.826416	414.256012
2473.189347	-313.846893	221.755127	425.594391
2473.192690	-314.372894	222.690247	438.218597
2473.196018	-314.898895	223.391586	450.316772
2473.199352	-315.015778	224.326706	465.571045
2473.202686	-315.074249	225.261826	478.370544
2473.206010	-315.366455	224.911163	491.403870
2473.209347	-314.372894	225.028061	505.489166
2473.212684	-313.496185	225.554062	519.749817
2473.216038	-313.262421	225.437164	533.016907
2473.219369	-311.625946	225.144928	547.978943
2473.222678	-310.223267	224.443604	562.005859
2473.226013	-308.586792	223.274689	577.376953
2473.229367	-306.774994	222.690247	592.280518
2473.232682	-305.021637	220.761536	606.482727
2473.236015	-302.040924	218.949722	621.737000
2473.239352	-299.060211	216.904144	636.582092
2473.242700	-294.969025	214.040329	651.602539
2473.246016	-291.754547	211.702515	667.441284
2473.249343	-287.137360	208.721802	682.929260
2473.252684	-282.403259	205.565735	699.352417
2473.256010	-277.084747	202.409698	713.671509
2473.259347	-271.941559	197.909409	728.516602
2473.262677	-265.454102	195.104019	744.355347
2473.266013	-259.025146	191.012863	758.908203
2473.269341	-251.953247	186.863235	773.168884
2473.272697	-243.770905	183.122726	787.780212
2473.276012	-236.231461	178.271774	801.339539
2473.279341	-227.172409	173.537689	816.184631
2473.282675	-218.464050	168.511398	829.627075
2473.286023	-208.820572	164.011093	842.894226
2473.289353	-198.066635	158.575684	855.810608
2473.292678	-187.604919	152.672714	868.434814
2473.296009	-176.266510	147.003510	881.292786
2473.299342	-163.700760	141.334305	891.637634
2473.302716	-152.128586	135.781998	902.216187
2473.306008	-139.621277	129.528351	914.139099
2473.309341	-125.828163	122.164230	923.490356
2473.312675	-113.496201	115.735245	933.075378
2473.316027	-99.936874	108.663353	942.485107
2473.319341	-85.442429	101.182343	950.725891
2473.322667	-71.707771	94.168900	958.382141
2473.326008	-57.563995	86.045006	964.226746
2473.329345	-42.660435	78.447105	970.305115
2473.332677	-28.224430	70.907654	974.513062
2473.336003	-13.905318	62.082405	979.188782
2473.339336	0.939801	53.666275	982.052551
2473.342667	15.960258	44.431908	984.507324
2473.346024	30.337814	35.489769	986.494385
2473.349330	45.299824	27.015196	987.312622
2473.352664	59.092930	18.014612	987.838684
2473.356041	74.171829	9.189363	987.137329
2473.359345	87.848045	-0.161893	985.208618
2473.362672	101.524254	-9.162478	981.818787
2473.366006	115.375809	-18.981298	979.188782
2473.369332	128.409119	-27.631210	974.688477
2473.372667	142.085327	-35.579781	970.246643
2473.375997	154.767960	-44.521919	963.759155
2473.379332	168.385727	-52.412041	956.862671
2473.382669	180.016357	-59.893044	950.667419
2473.385998	192.114548	-66.848045	942.134399
2473.389356	204.271179	-74.445938	932.081848
2473.392670	215.551117	-81.517830	923.139709
2473.396002	226.363525	-88.005264	911.859741
2473.399328	237.409698	-93.674461	900.229126
2473.402669	247.812973	-99.051437	889.299805
2473.406000	256.638245	-104.779076	876.558716
2473.409331	266.749268	-110.272942	864.635864
2473.412665	275.457642	-114.831680	851.953247
2473.415997	284.399750	-119.098190	838.919861
2473.419328	292.991211	-123.481598	824.951477
2473.422664	301.465820	-126.929871	810.223206
2473.425999	308.128571	-130.728821	796.196411
2473.429365	315.434265	-134.060196	780.708374
2473.432684	322.506134	-137.391586	766.096985
2473.435997	327.941559	-139.904739	749.849182
2473.439331	333.493866	-142.651657	735.237854
2473.442660	339.279938	-145.457047	719.866760
2473.446000	343.663330	-147.853302	704.144958
2473.449327	347.637634	-149.431320	688.773804
2473.452663	351.611908	-151.418472	673.519531
2473.455990	354.358856	-153.580948	658.031555
2473.459327	356.287537	-155.684982	643.303345
2473.462658	358.917572	-157.321457	627.113953
2473.465993	360.612488	-158.431915	612.093506
2473.469326	362.248993	-159.776154	597.131470
2473.472654	364.002319	-161.061951	582.870789
2473.476007	364.762115	-161.997086	566.681458
2473.479326	364.060760	-163.692001	553.414368
2473.482659	364.411469	-164.627121	538.861450
2473.485987	364.352997	-165.270020	524.600769
2473.489318	363.593201	-166.205139	510.340179
2473.492657	362.658081	-167.374054	496.605499
2473.495990	361.722961	-167.549377	484.156616
2473.499323	360.144928	-167.783157	470.480408
2473.502673	358.391571	-168.075394	456.453522
2473.505986	356.696655	-168.075394	442.426666
2473.509319	354.358856	-168.016953	430.912933
2473.512651	352.839264	-167.724731	418.405609
2473.515980	351.027466	-167.140274	406.950348
2473.519348	348.572754	-166.731155	394.969055
2473.522655	346.176483	-165.854477	384.448883
2473.525989	343.137360	-165.679138	373.227356
2473.529320	341.559326	-164.101105	362.473419
2473.532664	338.403259	-163.399765	352.713043
2473.535986	335.773224	-162.581543	342.660431
2473.539322	333.435394	-161.237289	331.789612
2473.542651	330.630035	-160.302170	322.146118
2473.545983	327.590881	-159.191696	313.087097
2473.549316	324.902405	-157.789017	304.437164
2473.552649	322.097015	-156.152542	294.793701
2473.555982	318.590302	-154.516083	286.377563
2473.559314	316.252472	-153.171844	277.786102
2473.562664	313.330200	-151.476913	269.720642
2473.565979	309.706604	-149.548218	261.538300
2473.569312	307.193451	-147.794861	253.706589
2473.572691	304.212708	-146.509064	245.465805
2473.575979	300.939789	-145.223267	238.978378
2473.579316	297.374634	-143.645233	232.432480
2473.582646	293.984802	-141.541199	225.419052
2473.585984	290.536530	-140.255402	219.106934
2473.589313	287.906494	-138.385147	213.554642
2473.592642	284.633545	-137.566925	206.833435
2473.595980	281.945038	-135.988907	201.281113
2473.599313	278.905914	-134.001755	195.378143
2473.602643	275.457642	-133.125076	189.299820
2473.605987	272.886017	-132.540619	184.331970
2473.609314	268.853302	-131.254822	179.247208
2473.612642	265.755707	-129.852142	174.396255
2473.615976	263.242554	-128.975449	169.253067
2473.619312	259.794281	-127.455879	164.869659
2473.622639	256.872009	-126.345421	159.784912
2473.625974	253.599060	-125.468735	155.167740
2473.629313	251.202805	-124.650505	151.193436
2473.632642	247.754517	-123.189369	147.745163
2473.635981	245.475159	-122.488022	143.537109
2473.639315	242.494446	-121.202217	139.562820
2473.642676	239.163055	-120.208656	135.880768
2473.645977	237.292801	-119.039749	132.315598
2473.649314	235.364105	-118.046173	129.802444
2473.652645	232.149612	-117.286385	126.120399
2473.655974	230.513153	-115.766808	122.789009
2473.659305	227.532425	-115.240791	120.158974
2473.662639	225.194611	-113.662773	117.470482
2473.665975	223.616592	-112.844536	114.080650
2473.669308	221.161880	-111.558739	112.444191
2473.672635	219.174759	-110.915840	109.346581
2473.675972	216.836945	-110.156052	106.541199
2473.679306	215.083557	-108.753365	104.495621
2473.682632	213.213318	-107.642899	102.625366
2473.685985	211.226181	-105.947983	99.644661
2473.689302	209.355927	-105.714203	98.300407
2473.692638	207.661011	-104.545296	95.319695
2473.695968	206.258316	-103.551727	93.683228
2473.699304	204.095840	-102.265930	90.702522
2473.702631	203.277603	-101.155464	88.949150
2473.705979	201.641144	-99.752777	87.663353
2473.709301	199.653992	-99.109879	85.793098
2473.712637	198.075974	-98.876099	83.864410
2473.715968	196.147278	-97.531853	82.344826
2473.719299	194.803040	-97.005844	80.766808
2473.722634	193.341904	-96.129166	78.896553
2473.725970	191.413193	-95.720047	78.487434
2473.729335	190.010513	-95.018700	76.149620
2473.732635	188.724716	-94.551140	74.630043
2473.735968	187.205139	-94.142029	73.285797
2473.739296	186.153122	-93.265343	72.467560
2473.742630	184.224426	-93.265343	70.714203
2473.745965	183.815308	-93.090012	70.012856
2473.749299	182.821732	-92.622444	68.902397
2473.752630	181.243713	-92.037994	67.499710
2473.755964	180.308594	-91.745766	66.330803
2473.759295	178.964340	-91.570435	64.694328
2473.762625	177.444763	-91.278198	64.051437
2473.765958	176.626526	-90.459969	63.817650
2473.769298	175.516068	-90.226189	63.233200
2473.772655	174.873169	-89.992401	61.830513
2473.775958	173.587372	-89.641731	61.304504
2473.779294	173.645813	-89.174171	61.129166
2473.782668	172.827576	-88.472824	60.018707
2473.785993	171.950897	-88.531265	59.492691
2473.789292	171.366455	-88.239044	58.791351
2473.792629	170.606659	-88.005264	57.973114
2473.795964	169.963760	-88.122154	57.739334
2473.799289	169.729980	-87.420807	56.979546
2473.802625	168.677963	-86.836357	57.330215
2473.805953	168.561081	-86.485687	56.687317
2473.809287	168.502625	-86.368790	56.745766
2473.812628	167.976608	-86.661018	55.927528
2473.815987	167.801285	-86.310349	56.102867
2473.819290	167.158371	-85.842781	55.226189
2473.822628	167.625931	-85.141441	54.992409
2473.825957	166.632370	-85.141441	54.466393
2473.829291	166.924591	-85.784340	54.407951
2473.832624	166.924591	-85.082993	53.881943
2473.835960	166.457031	-85.316780	53.823502
2473.839284	166.340149	-84.615433	54.174171
2473.842624	165.989471	-84.323204	53.940392
2473.845960	165.931030	-84.206314	54.115723
2473.849282	166.340149	-84.673874	53.823502
2473.852615	165.638809	-84.381653	53.063705
2473.855958	165.989471	-84.206314	53.239044
2473.859316	165.580353	-84.440094	53.180595
2473.862622	166.106369	-84.615433	53.355934
2473.865968	165.931030	-84.030983	53.239044
2473.869289	166.281693	-84.615433	53.355934
2473.872620	166.164810	-84.790764	53.355934
2473.875954	166.047913	-85.141441	53.531265
2473.879281	166.281693	-85.609001	53.005264
2473.882614	166.807709	-85.550560	53.940392
2473.885952	167.099945	-85.667450	53.239044
2473.889284	167.509048	-86.602577	53.940392
2473.892613	167.158371	-86.310349	54.174171
2473.895945	167.625931	-87.128578	55.050850
2473.899282	167.918167	-86.894798	55.401520
2473.902646	168.619507	-87.245468	55.284630
2473.905947	168.853287	-87.654587	56.161308
2473.909284	168.853287	-88.122154	57.213326
2473.912610	169.554642	-88.355934	57.271767
2473.915947	170.665100	-88.648155	58.031563
2473.919277	171.658661	-88.998833	58.791351
2473.922611	172.243134	-89.291061	59.375801
2473.925944	172.769135	-89.933960	60.194038
2473.929300	173.178253	-90.752197	61.596733
2473.932617	173.879593	-90.343079	61.538284
2473.935957	175.574509	-91.161308	62.181183
2473.939279	176.684967	-91.570435	63.642311
2473.943039	177.094086	-92.037994	64.109879
2473.945966	178.379898	-92.388664	65.512566
2473.949698	178.905899	-92.563995	67.324371
2473.953038	180.191696	-93.090012	67.850380
2473.956369	181.594376	-93.382233	68.025719
2473.959697	182.704834	-93.849792	69.662186
2473.963055	183.698410	-94.492699	71.006432
2473.966395	185.218002	-94.843369	72.233780
2473.969727	186.562241	-95.603157	73.110466
2473.973054	187.789597	-95.427826	74.454704
2473.976387	188.666275	-96.304497	74.980713
2473.979694	190.185852	-97.181183	77.260078
2473.983032	191.705429	-97.882530	78.955002
2473.986369	193.517227	-98.466980	80.240799
2473.989698	194.919922	-99.168327	81.701935
2473.993028	196.497955	-99.752777	83.104622
2473.996363	197.491531	-99.986557	84.565758
2473.999701	199.420212	-101.213913	86.669792
2474.003072	200.355331	-102.324371	88.715370
2474.006436	202.751602	-103.259499	89.825829
2474.009719	203.862061	-104.369965	91.754532
2474.013050	205.849197	-105.246643	93.800110
2474.016359	207.661011	-105.889542	96.722389
2474.019723	209.414368	-106.883110	98.767967
2474.023026	211.167725	-108.519585	100.813568
2474.026362	213.037979	-109.279373	103.618942
2474.029696	214.265335	-109.922272	106.482750
2474.033034	216.369370	-111.208069	108.002342
2474.036359	218.648727	-112.610756	110.223274
2474.039715	221.278778	-113.896553	113.320854
2474.043054	223.149017	-114.831680	116.418465
2474.046386	224.727051	-116.234375	119.516075
2474.049761	227.590881	-117.461716	122.964348
2474.053025	229.694901	-118.513741	126.354179
2474.056362	232.792511	-119.741096	129.802444
2474.059688	234.954987	-121.202217	133.718292
2474.063025	237.292801	-121.845123	136.874329
2474.066354	240.331970	-123.423149	140.205719
2474.069684	242.786682	-124.066040	144.180008
2474.073020	245.650497	-125.293396	147.978958
2474.076380	247.929871	-126.286972	152.829926
2474.079713	250.501450	-127.572762	157.096420
2474.083056	253.248398	-128.449448	161.538284
2474.086406	256.112213	-129.326126	165.687897
2474.089686	259.326721	-130.378128	170.714203
2474.093056	261.781433	-131.839279	175.448257
2474.096352	265.054352	-132.657516	180.299240
2474.099687	267.801270	-133.651077	185.325531
2474.103019	271.191101	-134.586212	191.286972
