time (s)	magX	magY	magZ
3561.732141	179.841034	-97.414963	74.863823
3561.735451	177.269440	-95.486267	72.642899
3561.738362	175.691406	-94.551140	71.473999
3561.741863	173.996475	-93.616013	69.136177
3561.745192	172.009354	-93.031563	66.856812
3561.748516	169.729980	-92.563995	65.571014
3561.751823	167.742828	-91.102867	63.291641
3561.755214	166.106369	-90.518417	62.181183
3561.758519	164.528351	-89.291061	60.836937
3561.761845	162.541199	-89.232620	58.674461
3561.765165	160.495605	-88.648155	57.330215
3561.768502	158.800690	-87.362358	56.453537
3561.771872	156.871994	-86.836357	54.407951
3561.775236	155.936874	-85.784340	53.180595
3561.778545	154.651077	-84.849213	51.719460
3561.781929	152.722382	-84.615433	49.790764
3561.785225	152.313263	-83.738747	48.563416
3561.788577	150.033890	-82.803627	48.154297
3561.791878	149.157211	-81.985390	47.277618
3561.795224	148.163635	-81.342491	45.290474
3561.798561	146.877853	-80.991821	44.413795
3561.801898	144.773819	-80.348923	43.303329
3561.805224	144.014023	-79.355347	41.900642
3561.808627	143.721786	-79.121567	41.549973
3561.811955	142.319107	-78.361778	40.322617
3561.815357	140.799530	-78.069550	39.329048
3561.818658	139.981293	-76.900642	38.160141
3561.821983	138.753937	-76.549973	38.101692
3561.825354	138.578613	-75.264175	37.867912
3561.828674	137.351257	-74.855057	35.880768
3561.832028	136.357681	-74.621277	35.530098
3561.835446	135.188766	-74.329048	34.185860
3561.838788	134.078308	-73.452370	34.010521
3561.841670	133.435425	-73.043251	32.900055
3561.845172	132.792526	-72.458794	32.549385
3561.848526	131.857391	-72.225014	32.140266
3561.851860	130.571594	-71.757454	31.555815
3561.855250	130.220917	-71.582115	31.672705
3561.858715	129.694916	-71.231445	31.029806
3561.862065	129.110458	-71.056107	30.912912
3561.865419	128.292221	-70.939217	29.685564
3561.868719	127.883102	-70.822327	30.503798
3561.872028	127.357109	-70.646988	30.153128
3561.875361	127.590889	-70.646988	29.334890
3561.878772	127.006432	-70.296318	28.224428
3561.882106	126.889542	-70.471657	28.691992
3561.885436	126.538864	-70.296318	28.925772
3561.888398	125.603737	-70.354767	28.282873
3561.891874	125.779076	-69.828751	28.750437
3561.895187	125.428406	-69.302750	29.101107
3561.898544	124.610168	-69.536530	28.691992
3561.901960	125.019295	-69.770309	28.107538
3561.905295	124.376389	-69.711861	28.516653
3561.908588	124.259499	-68.952072	28.633547
3561.911909	124.843948	-69.068970	27.230856
3561.915229	124.084167	-69.711861	27.756865
3561.918623	123.967270	-69.302750	27.932203
3561.921924	123.616608	-69.361191	28.399763
3561.925274	124.025719	-69.185860	27.815310
3561.928555	124.434837	-69.068970	28.049093
3561.931943	124.201050	-68.835182	27.406195
3561.935267	124.259499	-69.536530	28.341318
3561.938593	124.201050	-68.659843	27.815310
3561.941929	123.967270	-68.659843	27.990648
3561.945402	124.551727	-68.835182	27.990648
3561.948730	124.493279	-69.419640	27.756865
3561.952031	124.902397	-69.244301	28.341318
3561.955396	125.194626	-68.893631	28.341318
3561.958717	126.188202	-69.419640	28.633547
3561.962056	126.071304	-69.361191	29.042662
3561.965514	126.188202	-70.120979	29.101107
3561.968866	126.597313	-69.828751	29.042662
3561.972168	126.772644	-70.062531	29.568674
3561.975115	127.006432	-69.711861	30.270018
3561.978522	127.473991	-70.354767	28.867327
3561.981854	127.707771	-70.822327	30.328459
3561.985178	128.467560	-70.646988	30.211569
3561.988673	128.993576	-70.822327	30.386908
3561.991989	129.519577	-71.582115	31.263586
3561.995319	130.337814	-71.640564	31.789595
3561.998635	131.039154	-72.517242	31.614256
3562.001968	131.740494	-72.575684	32.081818
3562.005331	132.324966	-73.043251	32.958504
3562.008736	132.734070	-73.277031	34.127411
3562.012041	134.019867	-74.153717	34.302750
3562.015411	135.013443	-74.738167	34.711861
3562.018753	135.890121	-75.439514	35.997658
3562.022107	136.299240	-75.848625	36.582115
3562.025509	138.111038	-77.017532	37.108124
3562.028888	138.753937	-77.368202	37.984802
3562.032185	139.221497	-78.011108	38.919930
3562.035139	140.215073	-79.063118	39.796608
3562.038517	141.383987	-79.238457	41.023956
3562.041831	143.020447	-79.355347	42.426651
3562.045139	144.014023	-80.232033	43.537109
3562.048457	144.949142	-80.933372	43.712456
3562.051780	146.351837	-80.991821	44.881363
3562.055239	147.111633	-81.868500	45.641144
3562.058566	148.105194	-82.803627	47.219170
3562.061871	149.741653	-83.271187	47.686737
3562.065257	151.319687	-84.089424	48.914085
3562.068619	152.780823	-84.147873	50.316772
3562.071906	154.066620	-85.258331	51.544128
3562.075250	156.053772	-85.024551	52.713036
3562.078628	157.514893	-86.485687	53.765053
3562.081949	158.391586	-87.070137	54.641731
3562.085248	160.554062	-87.537697	55.927528
3562.088607	161.956757	-88.998833	57.037987
3562.091985	163.476318	-89.232620	59.258911
3562.095344	165.638809	-89.817070	59.901810
3562.098661	167.392151	-91.219757	62.181183
3562.102057	169.262421	-91.979546	63.525421
3562.105415	171.191101	-93.323792	65.687904
3562.108729	172.769135	-94.492699	68.025719
3562.112082	175.223831	-94.843369	69.837517
3562.115469	177.035645	-96.538284	72.058449
3562.118802	179.431900	-97.414963	73.344246
3562.122156	181.302155	-98.350090	76.383400
3562.125499	183.406189	-99.577446	78.545876
3562.128885	185.685562	-100.687904	81.292816
3562.131823	187.964920	-101.623032	83.922852
3562.135147	190.010513	-103.259499	86.436005
3562.138522	192.582108	-104.837524	90.001175
3562.141907	195.270599	-106.240211	92.514320
3562.145220	198.192871	-107.759789	96.196373
3562.148519	200.121552	-109.630043	98.943314
3562.151890	202.810043	-110.565170	102.683815
3562.155201	205.498535	-112.493866	106.774986
3562.158590	207.953232	-113.604324	110.632378
3562.161885	211.226181	-115.240791	114.372887
3562.165237	213.680878	-117.286385	117.587379
3562.168618	216.486252	-118.689072	121.561653
3562.171924	219.350082	-120.033310	126.120399
3562.175254	222.623016	-120.968437	130.211563
3562.178537	225.662170	-123.014030	135.120972
3562.181923	228.409103	-124.533607	139.562820
3562.185253	231.506714	-125.877853	144.472229
3562.188570	234.604324	-127.397430	148.914078
3562.191885	238.111023	-128.624786	154.407944
3562.195285	241.150192	-130.144348	159.258911
3562.198588	244.423141	-132.131500	165.512558
3562.201970	248.046738	-132.891296	170.538864
3562.205317	250.969009	-134.586212	176.967850
3562.208589	253.832855	-136.690247	182.753952
3562.211965	257.748688	-138.268265	188.949158
3562.215270	260.612518	-139.963181	195.261246
3562.218606	264.528351	-141.190521	201.748688
3562.221903	267.625946	-142.826996	209.112793
3562.225264	271.074219	-144.171249	216.126236
3562.228606	274.288696	-145.866165	222.613663
3562.231925	277.386322	-147.385742	230.153107
3562.235235	280.776154	-149.080658	238.686142
3562.238573	284.516663	-150.717133	247.511398
3562.241861	287.614258	-152.587372	255.576859
3562.245247	290.887207	-154.282303	264.986542
3562.248545	294.393921	-156.503220	274.337830
3562.251873	297.374634	-157.905899	284.098175
3562.255204	300.472229	-159.600815	294.443024
3562.258501	303.336060	-161.061951	304.261841
3562.261856	306.141418	-163.282883	315.015778
3562.265173	309.531281	-165.036240	325.769714
3562.268526	312.511963	-166.614258	338.686157
3562.271852	315.258911	-168.309174	350.784332
3562.275167	317.421387	-169.828766	362.005859
3562.278515	320.285217	-171.757462	374.688507
3562.281880	322.506134	-172.575684	388.423187
3562.285181	324.551697	-174.095276	401.573334
3562.288599	326.305084	-175.205734	414.665100
3562.291904	327.707764	-176.549973	427.406189
3562.295219	329.110474	-177.192871	442.251312
3562.298571	330.045593	-177.894211	458.148437
3562.301929	331.565155	-178.420227	472.759796
3562.305231	332.441833	-179.238464	487.838715
3562.308573	332.967834	-178.946228	502.859161
3562.311896	333.143188	-179.589127	517.704224
3562.315280	333.610748	-179.180008	533.367615
3562.318540	333.026306	-178.420227	548.855652
3562.321853	331.915833	-178.244888	565.103394
3562.325227	331.272919	-177.309769	580.766785
3562.328514	330.630035	-175.907074	596.780823
3562.331918	328.292206	-175.497955	613.203918
3562.335215	326.188202	-173.510818	628.925720
3562.338555	323.149017	-171.582108	644.705994
3562.341885	320.811218	-169.828766	661.246033
3562.345227	317.129181	-167.549377	677.844482
3562.348569	312.511963	-165.270020	692.923462
3562.351925	308.187012	-162.230865	708.352966
3562.355219	302.985382	-159.250153	724.308594
3562.358599	297.900635	-155.918762	740.264160
3562.361890	290.945648	-152.996490	755.401489
3562.365199	283.990631	-149.489777	770.538818
3562.368568	276.626526	-145.573944	786.202148
3562.371967	269.379333	-141.599655	800.404419
3562.375303	260.963165	-137.216248	814.898926
3562.378600	251.962601	-131.897720	829.159607
3562.381900	242.494446	-127.631210	842.368164
3562.385238	232.091171	-122.663353	855.693726
3562.388611	221.103439	-117.578613	867.791870
3562.391898	209.706604	-111.792526	880.299194
3562.395258	197.666855	-105.831093	889.592041
3562.398965	184.575089	-100.220337	901.222656
3562.401931	171.600235	-93.908241	910.866089
3562.405274	157.573334	-87.187027	919.223816
3562.408571	144.890701	-79.881355	927.347717
3562.412359	129.636475	-72.575684	932.841614
3562.415238	115.142029	-65.679131	940.439453
3562.418597	99.770897	-57.672127	945.524231
3562.422320	85.451782	-50.191116	948.621887
3562.425675	70.139099	-42.067215	951.836304
3562.428989	55.293983	-34.177090	954.407898
3562.432354	40.390415	-25.877850	954.291016
3562.435742	24.551723	-17.520164	954.407898
3562.438596	8.011689	-7.526009	953.355896
3562.442315	-6.716538	1.123903	950.901184
3562.445678	-21.152542	9.306253	946.809998
3562.448987	-36.815895	17.722383	942.368164
3562.451938	-51.310341	26.722971	938.393921
3562.455707	-65.746346	35.314438	930.854431
3562.459037	-79.773232	44.373466	924.250183
3562.461981	-93.098763	53.081825	916.301575
3562.465339	-106.599648	61.088837	908.528381
3562.468651	-120.392754	69.504967	898.475708
3562.472058	-132.958511	77.278198	888.423096
3562.475394	-145.524261	85.577438	878.487427
3562.478772	-157.856232	92.941544	867.148987
3562.482104	-169.720642	100.247215	855.343079
3562.485408	-180.357697	107.494446	843.946228
3562.488726	-192.222107	114.098770	830.854431
3562.492090	-202.859161	120.118637	817.295105
3562.495447	-212.327301	126.196960	803.560486
3562.498812	-222.146118	132.392166	789.358276
3562.502098	-230.796036	137.301575	775.331360
3562.505431	-239.562836	142.503220	761.304443
3562.508804	-247.862061	147.354172	745.874939
3562.512128	-255.576874	152.029800	730.386841
3562.515428	-263.642334	155.828751	715.775513
3562.518767	-270.363525	159.627701	699.820007
3562.522061	-276.967834	163.309753	684.624207
3562.525454	-282.812408	166.641144	669.369934
3562.528777	-289.124512	169.504959	653.180603
3562.532077	-294.209229	171.784332	637.692505
3562.535451	-298.534180	174.005264	621.853882
3562.538839	-302.625366	176.284622	605.781372
3562.542168	-306.190521	177.628876	590.001160
3562.545524	-308.995911	179.616013	573.578003
3562.548854	-311.801270	180.726471	557.973083
3562.552196	-314.197540	181.369370	544.238464
3562.555538	-316.418457	182.830505	528.925720
3562.558938	-317.002930	183.707184	514.022217
3562.562269	-318.230286	184.408524	498.709564
3562.565571	-318.814758	184.700745	484.565765
3562.568895	-319.048523	184.759216	469.954407
3562.572189	-318.756287	185.577438	456.102875
3562.575518	-318.814758	185.752777	442.075989
3562.578909	-318.230286	185.928101	427.815308
3562.582274	-317.762726	184.934540	414.957336
3562.585573	-315.950897	184.934540	402.625397
3562.588985	-314.665131	184.525421	390.118103
3562.592293	-312.794861	184.116318	378.370544
3562.595616	-311.216858	183.648743	366.739929
3562.598903	-309.755707	181.895370	355.693756
3562.602267	-307.534790	181.018692	344.589142
3562.605616	-305.255402	180.492691	333.250732
3562.608932	-303.092926	179.440674	323.490387
3562.612248	-300.638245	177.921097	313.729980
3562.615556	-297.891296	176.401520	304.554077
3562.618893	-295.202820	174.823502	294.735260
3562.622317	-293.274109	173.128586	286.260681
3562.625593	-289.650513	171.784332	276.734070
3562.628898	-287.312683	170.323212	267.908844
3562.632245	-284.215088	168.511398	259.784943
3562.635579	-281.818848	166.582703	251.485672
3562.638965	-278.487427	164.712448	243.712448
3562.642269	-275.740509	162.842194	235.120972
3562.645620	-272.876678	160.971939	227.756866
3562.648980	-269.954407	158.400345	220.568085
3562.651899	-267.733490	156.413208	213.613083
3562.655233	-264.694336	154.250732	207.067200
3562.658557	-260.836945	152.263580	200.521332
3562.661851	-258.031586	150.042664	194.326111
3562.665186	-254.641724	148.172409	187.663345
3562.668949	-251.544128	146.068375	181.292801
3562.671839	-249.381653	144.081238	175.740494
3562.675187	-246.167145	142.620102	169.545288
3562.678492	-242.894226	140.223846	163.992981
3562.681805	-239.738174	137.476913	158.499115
3562.685194	-236.932800	136.658676	153.531265
3562.688513	-234.068985	134.671539	148.504959
3562.691867	-230.796036	132.976608	143.946213
3562.695190	-227.698441	131.749268	138.218582
3562.698516	-225.769730	129.469894	133.835175
3562.701894	-222.964355	127.891876	130.153122
3562.705216	-220.100540	126.430740	126.354179
3562.708519	-216.944489	124.969604	122.555229
3562.711948	-214.197556	123.157806	118.054939
3562.715275	-211.918182	122.164230	114.489769
3562.718554	-209.405029	120.410873	111.099937
3562.721925	-206.248993	119.358856	108.645241
3562.725250	-203.502045	117.722382	104.846283
3562.728605	-201.573364	116.436584	101.514908
3562.731972	-199.235550	115.209229	99.293983
3562.735275	-196.956177	113.981873	95.670364
3562.738623	-194.326126	112.462311	93.215668
3562.741931	-192.397446	111.351837	90.527176
3562.745248	-190.001175	110.358261	88.423141
3562.748581	-188.306244	108.604904	85.500885
3562.751901	-185.734665	107.611336	83.279953
3562.755348	-183.981308	106.500877	81.643486
3562.758679	-182.052597	105.974869	79.305672
3562.762025	-179.656357	104.455292	77.143188
3562.765410	-178.370544	102.877258	75.272942
3562.768753	-176.383408	101.708351	73.168907
3562.772051	-174.045593	100.188782	71.415550
3562.774985	-172.642899	99.545876	69.136177
3562.778437	-171.415558	98.376968	67.441261
3562.781747	-169.136185	96.974274	65.571014
3562.785071	-167.558167	96.214500	63.642311
3562.788403	-165.512573	95.045593	63.525421
3562.791736	-164.109894	93.935120	60.895378
3562.795101	-162.590302	92.999992	58.791351
3562.798469	-160.953827	92.357101	56.804207
3562.801772	-159.083588	91.363525	56.044418
3562.805161	-158.090012	90.253067	54.349503
3562.808458	-156.745773	89.960838	53.297485
3562.811784	-155.401535	88.558151	52.303917
3562.815152	-154.115723	87.506142	50.842781
3562.818556	-152.771484	87.155464	49.790764
3562.821901	-151.485687	85.694328	48.738754
3562.825243	-150.082993	85.460541	47.862068
3562.828548	-149.030991	84.934547	46.985390
3562.831966	-147.686737	83.999420	45.874924
3562.835275	-146.517822	82.888947	45.232033
3562.838603	-146.108719	82.713615	44.180016
3562.841954	-144.472244	82.362946	43.303329
3562.845282	-143.829346	81.895378	42.251312
3562.848556	-142.601990	81.194038	40.965515
3562.851854	-141.900650	80.200462	41.374634
3562.855203	-141.140854	79.499123	40.205727
3562.858535	-139.738174	79.674461	38.919930
3562.861903	-139.036819	78.856224	38.043251
3562.865224	-137.634140	78.622444	36.640564
3562.868534	-137.166580	78.096428	36.874344
3562.871853	-136.348343	77.862648	36.991234
3562.875224	-135.471649	77.395088	35.997658
3562.878574	-135.413223	78.096428	35.880768
3562.881937	-134.244308	77.219757	35.296318
3562.885255	-134.127411	76.635300	34.478081
3562.888552	-133.309189	76.226181	34.185860
3562.891947	-133.250732	76.401520	33.835182
3562.895256	-132.198715	75.875511	33.542953
3562.898593	-131.906494	75.407944	32.607834
3562.901557	-131.322037	75.057274	32.549385
3562.905128	-130.445358	74.998833	32.666275
3562.908422	-130.620697	74.472824	32.140266
3562.911815	-130.503799	74.472824	31.555815
3562.915142	-129.919357	74.063698	31.438925
3562.918500	-129.744019	74.297485	31.380476
3562.921807	-129.568680	73.829918	31.146696
3562.925279	-128.925781	73.596138	30.971361
3562.928552	-128.867325	72.953239	30.503798
3562.931902	-128.516663	72.602570	30.503798
3562.935253	-128.282883	72.193451	30.679132
3562.938553	-127.932198	72.251900	29.510225
3562.941930	-127.873756	72.602570	30.503798
3562.945345	-127.756859	72.719460	29.977789
3562.948706	-127.523079	71.550552	28.808882
3562.951582	-127.639977	72.427231	29.802454
3562.955108	-127.581535	72.135010	29.159552
3562.958481	-127.172417	72.310341	29.627115
3562.961782	-126.997078	72.018120	29.218000
3562.965124	-127.230858	72.485680	29.393335
3562.968594	-127.347755	72.368790	28.984217
3562.971936	-127.873756	72.719460	29.218000
3562.975259	-127.756859	73.011688	29.685564
3562.978596	-127.756859	73.011688	29.101107
3562.981961	-127.581535	73.537697	29.159552
3562.985287	-128.107544	73.829918	29.685564
3562.988586	-127.932198	73.187027	29.802454
3562.991967	-128.341339	73.829918	30.036238
3562.995299	-128.692001	74.180588	30.503798
3562.998579	-128.867325	74.297485	30.854471
3563.001905	-129.042679	74.589714	30.796022
3563.005341	-129.919357	75.232613	31.205145
3563.008678	-129.744019	75.641724	31.906488
3563.012067	-130.094681	75.758621	32.315605
3563.015034	-130.737579	76.167740	31.438925
3563.018390	-131.614273	75.817070	32.490944
3563.021751	-131.906494	76.518410	33.250725
3563.025046	-132.490952	76.927528	33.250725
3563.028478	-132.783173	76.927528	34.010521
3563.031819	-133.893631	76.693741	34.594971
3563.035252	-134.127411	77.862648	35.471657
3563.038649	-135.062546	77.862648	35.004089
3563.041982	-136.173004	77.862648	35.997658
3563.045335	-137.108124	78.388664	35.939217
3563.048735	-138.218597	78.739334	36.991234
3563.052074	-138.452377	78.914665	37.341904
3563.055450	-139.270599	79.674461	38.452362
3563.058810	-139.913498	80.375801	39.913498
3563.061687	-140.731735	80.492691	40.205727
3563.065051	-141.491531	80.726471	41.374634
3563.068377	-143.011108	81.427818	41.666862
3563.071874	-143.361786	82.304497	43.186440
3563.075162	-144.063126	82.479836	42.894211
3563.078521	-145.115143	83.239624	43.478668
3563.081825	-146.810059	83.707184	44.939804
3563.085141	-147.102280	84.350082	45.816483
3563.088509	-148.621857	85.168327	46.225601
3563.091828	-149.615433	86.045006	46.868500
3563.095206	-150.667450	86.337234	48.095848
3563.098688	-151.953247	87.681473	49.732323
3563.101988	-153.005264	87.798355	50.492111
3563.105315	-154.349503	88.850380	51.719460
3563.108671	-155.693741	90.077736	53.765053
3563.112001	-156.862656	90.662178	53.355934
3563.115354	-158.674469	91.129745	55.576859
3563.118852	-159.901825	92.766212	57.330215
3563.122160	-160.953827	93.350670	58.323784
3563.125080	-162.298080	94.870247	59.492691
3563.128427	-163.817657	95.980713	60.720047
3563.131823	-166.447708	96.039154	62.648750
3563.135133	-168.025726	97.441841	64.694328
3563.138489	-169.837524	99.136757	66.856812
3563.141824	-171.883118	100.247215	69.253067
3563.145224	-173.461136	101.649902	70.889542
3563.148550	-175.682053	102.059029	72.233780
3563.151876	-177.902985	103.520164	74.805374
3563.155187	-179.481003	105.331970	77.260078
3563.158526	-181.117477	107.085327	79.597900
3563.161877	-183.805969	107.903564	82.052597
3563.165220	-186.026886	108.663353	83.981300
3563.168560	-187.663361	110.066048	87.604912
3563.171906	-189.884293	111.234955	89.942726
3563.175249	-192.046753	112.871414	92.397423
3563.178560	-194.501465	113.923431	94.384575
3563.181874	-196.780838	114.858551	98.183525
3563.185258	-199.527771	116.027466	101.222679
3563.188623	-201.924026	117.488602	103.969604
3563.191922	-204.554077	118.832840	107.476326
3563.195232	-206.658096	120.936890	110.047920
3563.198518	-209.521927	122.105789	113.788429
3563.201882	-211.976639	123.450027	117.704277
3563.205216	-214.489777	125.203384	121.210991
3563.208505	-216.710693	126.839859	125.477501
3563.211875	-219.106949	127.950317	128.750427
