time (s)	magX	magY	magZ
1452.896358	403.888947	211.616013	548.549927
1452.899713	404.005829	211.908249	536.393311
1452.903021	403.830505	211.791351	524.938110
1452.906359	403.304504	212.025116	513.073608
1452.909691	403.246033	212.258911	500.215668
1452.913020	403.538269	212.200470	490.163055
1452.916354	402.252472	211.440674	479.233795
1452.919695	401.025116	211.148453	469.005859
1452.923018	399.505554	210.154861	458.193451
1452.926396	398.745758	210.096420	446.095276
1452.929693	397.810638	209.687302	435.808899
1452.933024	395.765045	208.693741	426.282318
1452.936353	394.245453	207.758621	415.762146
1452.939689	392.316772	206.589691	406.352417
1452.943058	391.089417	206.122131	397.760956
1452.946352	389.394501	204.777908	387.883698
1452.949694	386.939789	203.667450	378.590881
1452.953020	384.426636	202.732315	370.233185
1452.956355	382.673279	201.329636	361.057281
1452.959690	380.218567	200.160721	352.524261
1452.963019	377.471649	199.634720	343.523682
1452.966358	375.659851	197.939804	335.399780
1452.969689	373.029816	197.296906	326.808319
1452.973021	371.042664	195.777313	320.320862
1452.976353	367.711273	195.017532	312.313843
1452.979691	365.548798	193.439499	303.839264
1452.983021	362.860321	192.153717	296.475159
1452.986347	360.113373	191.277023	289.753937
1452.989682	357.074219	189.932770	282.331390
1452.993023	354.444183	189.056107	275.259491
1452.996373	352.106354	187.828751	267.544708
1452.999691	348.599640	186.309174	261.992401
1453.003019	345.502045	185.374039	254.745178
1453.006346	342.930450	184.088257	249.601990
1453.009681	340.592621	183.036224	244.108124
1453.013019	337.670380	182.101105	238.322052
1453.016351	334.981873	179.938629	232.185272
1453.019681	331.884277	179.237274	228.035660
1453.023013	329.780243	177.600815	221.372894
1453.026348	326.624207	176.431900	217.164825
1453.029714	324.286377	174.912338	212.489197
1453.033014	321.890106	173.743423	207.696671
1453.036350	318.617187	172.282288	203.547043
1453.039676	316.279358	170.996490	199.397415
1453.043014	313.824646	169.710693	194.604919
1453.046345	311.136169	168.541794	190.981293
1453.049676	308.798370	167.489761	187.649918
1453.053010	306.811218	165.561066	183.324951
1453.056348	304.298065	163.983047	179.935120
1453.059694	302.077148	163.632385	176.486847
1453.063012	299.797760	161.703674	172.337234
1453.066386	297.459961	160.768555	169.824081
1453.069671	295.472809	159.015182	165.674454
1453.073020	293.368805	158.255402	163.628876
1453.076343	291.440094	156.969604	159.362366
1453.079677	289.043823	155.274689	157.608994
1453.083013	287.933380	154.164230	154.511398
1453.086342	285.478668	153.229095	152.173584
1453.089676	283.140839	152.410858	148.549973
1453.093006	281.504364	151.767960	145.686142
1453.096339	279.458771	150.131500	143.640564
1453.099673	277.705444	149.371704	141.711868
1453.103023	275.601379	148.553482	139.432495
1453.106340	273.614258	147.326126	136.510223
1453.109673	271.627136	146.975449	133.646408
1453.113009	269.873779	145.572754	131.483917
1453.116340	268.120392	144.812973	129.146103
1453.119671	266.542358	143.585617	126.808289
1453.123006	265.081238	142.650497	125.230270
1453.126336	262.801880	141.949142	122.483353
1453.129672	261.340759	141.364685	120.846878
1453.133020	259.587402	140.897125	118.859726
1453.136363	258.301575	139.611343	117.515488
1453.139672	257.015778	138.734650	115.528351
1453.143004	255.262421	138.208649	112.839859
1453.146355	253.684402	137.156631	111.320282
1453.149665	252.281708	136.747513	109.333145
1453.152996	250.586792	136.572174	108.690231
1453.156338	249.651672	135.695496	106.177094
1453.159666	248.599655	135.111038	105.826416
1453.162999	247.138504	134.292801	104.014610
1453.166336	246.144943	133.883682	103.196381
1453.169668	244.976044	133.123901	102.728821
1453.173002	244.157791	132.247223	100.624786
1453.176329	243.105789	131.838104	99.572762
1453.179664	242.579773	131.428970	98.696091
1453.182996	241.644638	130.902985	97.936295
1453.186333	241.060181	130.376968	96.708939
1453.189671	240.358856	130.260071	96.182938
1453.192992	238.839264	129.558731	94.546463
1453.196325	239.014603	128.974274	94.721802
1453.199667	237.845703	129.032730	93.319115
1453.202998	237.728806	128.389816	92.676208
1453.206330	236.969025	128.039154	92.617775
1453.209674	236.384552	127.337822	91.799530
1453.212997	235.683228	127.805382	91.215088
1453.216326	234.981873	127.279366	91.098190
1453.219694	234.981873	126.402687	90.864403
1453.222999	234.806534	127.104042	90.338394
1453.226326	234.280533	126.636467	89.637054
1453.229657	233.812973	126.753365	89.987732
1453.233008	233.520752	126.285789	89.052605
1453.236327	233.286957	125.526009	88.643486
1453.239662	232.760956	125.993584	88.468147
1453.242999	232.527191	125.876686	87.825249
1453.246329	232.410294	125.058434	86.773224
1453.251009	231.884262	125.175331	87.007019
1453.254367	231.416702	124.590874	87.240799
1453.257693	231.767395	124.590874	86.714790
1453.260995	231.124496	124.941551	86.481010
1453.264332	231.066040	125.467567	86.481010
1453.267641	230.715363	124.941551	85.779663
1453.271016	231.299835	124.590874	86.188782
1453.274355	230.832260	124.941551	86.013443
1453.277267	230.832260	125.292229	85.838104
1453.280617	231.299835	125.000008	86.130333
1453.283841	231.299835	124.649330	86.422562
1453.287198	231.066040	125.233788	86.013443
1453.290495	231.650497	125.175331	86.481010
1453.293854	231.650497	125.000008	86.539444
1453.297199	232.059616	125.175331	86.714790
1453.300614	232.410294	125.642906	87.182350
1453.303901	232.819397	125.818230	87.883698
1453.307257	233.345413	125.876686	87.883698
1453.310505	233.520752	126.636467	88.701927
1453.313828	233.754517	127.279366	89.169487
1453.317170	235.040329	126.870262	89.637054
1453.320542	235.449432	127.630043	90.163063
1453.323872	235.916992	127.571602	91.039742
1453.327242	237.144348	128.448273	92.033310
1453.330590	238.254807	128.565170	93.143768
1453.333892	238.839264	127.980721	93.669785
1453.337161	239.949722	128.857376	94.429573
1453.340501	240.709518	129.558731	95.014023
1453.343833	241.761536	130.201630	97.293396
1453.347183	242.462875	130.376968	98.345406
1453.350555	244.333130	130.844528	100.040329
1453.353925	244.976044	131.428970	101.618347
1453.357233	245.969604	131.721207	102.670372
1453.360513	246.612503	132.247223	103.547043
1453.363854	248.073624	132.831665	105.417297
1453.367155	249.826996	132.656326	105.709526
1453.370514	250.528336	133.533005	107.345993
1453.373857	251.405029	134.292801	108.047333
1453.377293	252.690811	135.169495	109.274689
1453.380564	254.093506	136.221497	110.618942
1453.383905	254.911728	136.747513	112.839859
1453.387167	256.606659	137.215073	113.482758
1453.390485	258.009338	138.033310	115.353012
1453.393861	259.061371	138.676208	116.872589
1453.397190	260.522522	139.143768	118.625946
1453.400517	261.282288	139.786667	120.028641
1453.403889	262.509644	140.488007	121.723557
1453.407263	263.561676	141.598465	123.652252
1453.410580	265.607239	142.007584	125.405609
1453.413825	267.068390	142.942719	127.217422
1453.417156	268.471069	144.170059	129.496780
1453.420494	269.698425	144.812973	131.250137
1453.423845	271.042664	145.631210	133.880188
1453.427185	272.971375	146.449448	135.633545
1453.430573	275.250732	147.676788	138.029816
1453.433915	276.594971	147.910568	140.367630
1453.437205	278.406799	148.845688	143.231445
1453.440494	280.627716	150.073044	145.978378
1453.443818	282.848633	151.592636	148.374634
1453.447166	283.959076	152.819992	151.472244
1453.450539	287.115143	153.229095	154.160721
1453.453919	288.751587	153.871994	157.433670
1453.457229	291.089417	155.508469	160.940384
1453.460570	293.719452	156.151367	164.447098
1453.463829	295.355927	157.320267	167.953827
1453.467148	297.810638	157.612503	171.928116
1453.470488	300.674469	159.307419	175.610168
1453.473842	302.544708	161.236115	179.935120
1453.477180	304.999420	161.820557	183.383392
1453.480603	307.804810	162.463470	188.292816
1453.483923	310.727051	163.807709	191.799545
1453.487240	312.188202	164.859726	196.533600
1453.490477	314.993561	166.262405	200.566345
1453.493851	317.915833	167.606659	205.475754
1453.497143	320.312103	168.717117	210.560486
1453.500501	323.234375	169.535355	215.294571
1453.503854	326.039734	170.470474	219.385742
1453.507233	328.026886	171.873169	223.360031
1453.510563	330.715363	173.042084	229.263000
1453.513838	333.403839	174.853882	234.756866
1453.517164	336.559906	175.905899	239.023376
1453.520478	338.780823	177.425476	244.692596
1453.523879	341.118652	178.535934	249.017517
1453.527180	343.690216	179.354172	255.037415
1453.530509	346.261841	180.873749	261.700165
1453.533885	348.774994	182.451767	268.304474
1453.537264	351.171234	183.445358	272.746338
1453.540487	354.677979	184.146683	279.876678
1453.543820	356.781982	185.724716	286.305664
1453.547147	359.178253	187.419632	292.500885
1453.550516	361.691406	188.179413	300.040344
1453.553837	364.672119	189.582108	306.761536
1453.557232	366.542358	190.634125	313.482758
1453.560557	369.523071	191.569260	321.489777
1453.563890	372.270020	192.796616	328.503235
1453.567143	375.075378	193.790176	337.211578
1453.570052	377.062531	194.549957	344.692596
1453.573813	379.517242	196.186447	352.582703
1453.576712	381.796600	197.121567	361.407959
1453.580065	384.192871	198.232025	370.992981
1453.583379	386.706024	198.173569	379.759796
1453.586714	388.926941	199.342484	388.760376
1453.590074	390.972534	199.926941	399.046753
1453.593415	393.544128	200.336044	408.398010
1453.596737	395.180573	200.569839	418.859711
1453.600055	396.583282	200.920502	428.620087
1453.603380	398.628876	201.563400	439.374054
1453.606713	400.323761	201.621857	449.485107
1453.610078	401.375793	201.680298	462.576874
1453.613385	402.895386	202.381638	474.441254
1453.616715	404.239624	202.030960	485.312073
1453.620041	405.350098	202.381638	497.585602
1453.623423	406.694305	201.914062	509.157806
1453.626735	407.278778	200.978943	520.963745
1453.630066	407.395660	201.095840	532.945068
1453.633423	408.447693	200.803604	545.276978
1453.636714	407.980133	199.985382	557.609009
1453.640039	407.921661	199.517822	570.233154
1453.643378	407.337250	198.465805	583.675659
1453.646720	406.811218	198.290466	596.007568
1453.650039	405.759186	196.946213	609.040894
1453.653399	404.882538	195.718887	622.483398
1453.656709	403.888947	194.725296	634.406128
1453.660067	401.960266	193.614838	647.907104
1453.663394	400.908234	192.036819	661.174194
1453.666757	398.570404	189.757446	674.207520
1453.670123	395.589722	188.763870	688.760376
1453.673371	392.609009	186.484497	701.209229
1453.676711	389.862061	184.555817	714.067261
1453.680052	386.589111	183.211563	726.925171
1453.683376	383.140839	180.347748	740.542969
1453.686706	378.348328	177.483932	753.868530
1453.690048	373.848022	174.853882	768.187622
1453.693374	369.113983	172.048508	781.746948
1453.696749	364.379883	169.009354	795.656860
1453.700062	358.243134	165.327286	809.683838
1453.703389	352.164825	161.820557	823.476929
1453.706758	346.261841	157.144943	836.919312
1453.710067	339.715942	153.521332	850.420288
1453.713371	332.468719	149.137924	863.687256
1453.716698	325.689087	143.877853	877.714233
1453.720042	317.448273	138.851547	891.039673
1453.723391	309.265930	133.533005	904.189941
1453.726702	300.791321	128.039154	916.054443
1453.730032	291.907654	122.194633	930.607300
1453.733394	282.965515	116.525429	943.114502
1453.736729	272.912903	110.505547	955.972534
1453.740082	262.684967	103.082993	967.252441
1453.743397	252.632385	95.368210	978.590942
1453.746712	241.118652	88.763885	989.111084
1453.750030	229.429581	81.984230	1000.566284
1453.753400	217.974274	74.795441	1012.021606
1453.756695	205.700760	67.139099	1021.022217
1453.760035	193.310349	60.242554	1029.496826
1453.763371	180.510803	52.527763	1039.724731
1453.766712	167.243713	44.929863	1045.919922
1453.770049	155.028625	36.864410	1052.699585
1453.773393	141.586212	29.266508	1059.128662
1453.776724	127.851547	21.843950	1065.908325
1453.779665	114.292221	14.187609	1071.226807
1453.783399	101.083572	6.589714	1076.720703
1453.786703	87.524261	-1.534191	1080.227417
1453.789608	73.555817	-9.073641	1084.844604
1453.792932	59.236702	-16.905319	1086.714844
1453.796305	45.852715	-25.672123	1089.870972
1453.799608	32.001167	-34.029808	1092.091797
1453.802936	16.162477	-41.277031	1092.676270
1453.806273	1.843367	-49.400932	1093.202271
1453.809621	-11.891293	-57.174164	1093.377563
1453.812933	-25.742840	-64.304504	1092.442505
1453.816265	-39.594391	-72.019287	1091.390381
1453.819599	-53.738171	-79.909409	1090.104614
1453.822930	-66.654587	-87.331970	1086.071899
1453.826268	-80.155472	-94.111626	1083.441895
1453.829601	-93.539444	-102.410873	1079.759888
1453.832935	-107.098785	-109.307419	1074.908813
1453.836262	-120.015198	-116.554642	1069.590332
1453.839608	-133.282288	-123.743423	1063.453613
1453.842948	-145.555817	-130.581528	1057.375244
1453.846265	-157.946228	-137.711868	1050.303345
1453.849600	-169.927536	-145.017532	1043.757568
1453.852930	-181.967285	-151.504974	1034.640015
1453.856267	-193.656342	-158.518417	1025.873169
1453.859602	-205.111618	-164.772079	1017.632324
1453.862936	-215.514893	-171.142624	1009.216309
1453.866260	-226.151962	-177.337814	998.929810
1453.869621	-236.905914	-183.065460	988.994141
1453.872932	-246.724731	-189.611343	977.246582
1453.876261	-256.894196	-194.812973	966.667969
1453.879593	-265.661011	-200.306854	955.621826
1453.882935	-274.661621	-205.976044	943.406860
1453.886261	-283.837524	-210.943893	930.315063
1453.889588	-292.370544	-215.268860	917.924683
1453.892926	-300.436005	-219.418472	905.826416
1453.896262	-307.800140	-223.509644	893.143799
1453.899599	-314.988892	-228.419067	879.350708
1453.902924	-322.002350	-230.873749	865.849854
1453.906281	-328.080658	-234.088257	852.641113
1453.909595	-334.275879	-237.244293	839.023315
1453.912946	-340.821747	-240.166565	827.275879
1453.916256	-345.497375	-242.504379	811.963257
1453.919591	-350.699005	-245.426651	798.988281
1453.922920	-356.134430	-247.238480	785.896484
1453.926262	-361.043823	-248.524261	772.687866
1453.929587	-364.667450	-250.102280	759.479248
1453.932922	-368.758636	-251.563416	746.270630
1453.936260	-371.797791	-252.849228	732.769775
1453.939593	-375.070709	-253.433655	719.385742
1453.942928	-376.765625	-254.135010	707.287598
1453.946253	-380.097015	-255.303909	694.663330
1453.949617	-381.558167	-256.122162	682.565186
1453.952919	-383.019318	-256.414398	669.882568
1453.956264	-385.064880	-256.472809	657.784302
1453.959588	-386.818207	-256.706604	645.160156
1453.962922	-387.694946	-256.940369	633.646362
1453.966251	-389.039185	-256.765045	622.074219
1453.969589	-390.032715	-256.881958	609.508423
1453.972923	-390.558716	-257.174164	598.462280
1453.976256	-391.026306	-256.531250	586.773193
1453.979595	-390.500305	-256.414398	574.207520
1453.982914	-390.967834	-255.713043	562.518433
1453.986256	-390.441833	-255.187042	552.290527
1453.989585	-390.208069	-255.070145	540.484497
1453.992952	-389.682068	-254.076584	530.022827
1453.996248	-388.863861	-253.901230	519.327271
1453.999597	-388.746918	-252.440094	507.871979
1454.002917	-387.578003	-252.264771	497.819427
1454.006253	-386.759796	-251.563416	487.766785
1454.009578	-385.941559	-250.511414	477.538879
1454.012918	-384.772644	-249.634720	467.018707
1454.016251	-383.428436	-248.290466	457.492096
1454.019586	-381.441254	-247.063110	445.861481
1454.022916	-380.389252	-245.660431	436.159576
1454.026245	-377.876099	-244.725296	427.100525
1454.029581	-375.947418	-243.439514	418.158386
1454.032913	-374.544708	-242.153717	409.157806
1454.036274	-373.083588	-240.283463	401.267670
1454.039574	-371.271790	-239.231445	392.033325
1454.042918	-368.700165	-237.536530	383.850952
1454.046247	-367.531281	-236.835190	375.727051
1454.049593	-365.193451	-234.906479	368.421387
1454.052911	-363.264740	-232.977798	360.239044
1454.056247	-360.576263	-231.282883	353.284058
1454.059573	-359.641144	-229.880188	346.270599
1454.062910	-356.835785	-228.360611	340.016968
1454.066246	-355.608429	-226.256592	333.120392
1454.069578	-352.919922	-224.678574	326.399170
1454.072908	-351.517242	-223.568085	320.554626
1454.076244	-349.822327	-221.756302	314.710114
1454.079611	-347.250732	-219.944473	308.456451
1454.082905	-344.796051	-218.892471	303.605469
1454.086248	-343.276459	-217.255997	296.708954
1454.089576	-341.113983	-215.210403	292.383972
1454.092911	-339.711273	-214.099945	286.364136
1454.096245	-337.139679	-212.229691	281.279358
1454.099571	-334.977234	-211.353012	276.954407
1454.102905	-332.990082	-209.482773	271.986542
1454.106237	-330.360046	-207.787857	266.960266
1454.109574	-328.372894	-206.326721	263.161285
1454.112901	-326.853302	-205.566925	258.427246
1454.116255	-324.749268	-203.988907	254.920502
1454.119575	-322.879028	-202.761551	249.952637
1454.122942	-321.476349	-201.358856	246.562836
1454.126240	-318.846283	-199.956177	241.770325
1454.129585	-316.742249	-198.611923	238.088257
1454.132910	-314.696655	-197.033905	234.464630
1454.136235	-312.943329	-196.040329	230.724136
1454.139564	-311.073059	-195.163651	226.983643
1454.142906	-309.085907	-193.293411	223.126236
1454.146238	-308.033905	-192.533615	219.736404
1454.149570	-305.520752	-191.189362	216.638794
1454.152904	-303.533600	-190.254242	212.781403
1454.156237	-301.254242	-189.143784	209.917587
1454.159574	-299.676239	-188.325546	207.053772
1454.162905	-298.448883	-187.215088	203.663940
1454.166256	-297.046173	-185.929291	200.391006
1454.169568	-295.175934	-184.526596	197.994736
1454.172903	-293.597900	-184.000595	194.663361
1454.176234	-292.428986	-182.422562	191.857986
1454.179571	-290.850983	-181.721222	189.052597
1454.182901	-288.980713	-180.961426	186.890121
1454.186293	-286.993561	-180.026306	185.078308
1454.189587	-285.883118	-179.091187	182.156067
1454.192901	-285.240234	-177.746948	180.636475
1454.196239	-284.363525	-177.396271	177.831100
1454.199564	-282.902405	-176.928696	176.428406
1454.202899	-281.908813	-175.818237	175.201050
1454.206236	-280.623016	-175.116898	173.623016
1454.209592	-280.213898	-173.421982	171.168320
1454.212898	-278.226776	-172.837524	170.291641
1454.216232	-277.817657	-172.486862	168.129166
1454.219566	-276.648743	-171.727066	167.077148
1454.222893	-275.655182	-171.668610	165.265350
1454.226230	-275.129181	-170.090591	164.037994
1454.229562	-274.369385	-169.739929	162.635300
1454.232886	-273.375793	-169.213913	162.927536
1454.236223	-272.440674	-167.928116	161.407944
1454.239556	-272.499146	-167.635895	160.180603
1454.242893	-272.148468	-167.577454	159.187027
1454.246223	-270.336639	-166.992996	159.070129
1454.249554	-270.219757	-166.233215	157.492111
1454.252911	-269.635284	-166.525421	156.615433
1454.256222	-268.875488	-166.057861	155.680313
1454.259562	-268.407928	-165.414963	154.686737
1454.262891	-267.823517	-165.414963	155.212753
1454.266219	-267.648163	-165.531845	153.225601
1454.269557	-266.946808	-164.888962	153.400925
1454.272890	-266.829926	-165.122742	153.868500
1454.276225	-266.771484	-164.772079	152.874939
1454.279561	-266.654602	-164.538284	152.290466
1454.282886	-266.479248	-164.246063	152.465805
1454.286224	-266.070129	-163.895386	151.238464
1454.289551	-265.076569	-164.246063	150.946228
1454.292890	-265.135010	-163.369385	150.712448
1454.296247	-264.258331	-163.661606	150.127991
1454.299557	-264.725891	-164.070724	150.069550
1454.302892	-264.725891	-163.953827	149.368195
1454.306218	-265.018127	-163.778503	149.251312
1454.309550	-263.498535	-163.895386	149.134415
1454.312887	-264.141449	-163.603165	150.186447
1454.316215	-264.083008	-163.778503	148.725311
1454.319548	-264.901245	-164.246063	149.017532
1454.322881	-264.784332	-163.895386	149.134415
1454.326264	-265.719452	-163.836945	150.244888
1454.329555	-265.544128	-163.720047	150.537125
1454.332887	-266.070129	-164.421402	151.355347
1454.336214	-266.596161	-164.012283	151.355347
1454.339572	-266.128601	-164.246063	152.524261
1454.342881	-267.355957	-164.129166	152.991821
1454.346215	-267.472809	-164.129166	153.400925
1454.349550	-268.291077	-164.655182	154.686737
