time (s)	magX	magY	magZ
1164.841839	-410.897736	-284.000580	668.538330
1164.845172	-409.728821	-283.883667	679.701294
1164.848500	-409.319702	-284.292816	690.805908
1164.851832	-408.735229	-283.357666	701.618286
1164.855170	-407.566345	-282.714783	713.249023
1164.858497	-405.812988	-282.188751	723.944458
1164.861834	-404.351868	-280.552307	736.627075
1164.865166	-402.598480	-279.850952	748.023926
1164.868499	-399.968445	-278.331390	759.362305
1164.871829	-398.624176	-276.870239	772.512573
1164.875178	-396.637054	-275.350647	784.552368
1164.878499	-393.130341	-273.597321	796.358276
1164.881835	-390.383392	-272.077728	808.105835
1164.885167	-387.285797	-270.032135	821.197510
1164.888501	-383.662170	-268.044983	831.893066
1164.891828	-380.506134	-266.525421	844.575684
1164.895166	-376.707184	-263.778503	855.680298
1164.898502	-372.674469	-261.382233	869.239624
1164.901833	-367.122162	-259.453522	880.753418
1164.905164	-362.680328	-257.057281	893.494507
1164.908497	-357.946228	-253.901230	904.832886
1164.911833	-352.393951	-250.978973	915.002319
1164.915159	-346.549377	-248.699600	927.509644
1164.918505	-340.646423	-245.485092	940.718262
1164.921826	-334.977234	-242.504379	952.582642
1164.925164	-328.255981	-238.763885	962.985962
1164.928488	-320.833435	-235.607834	974.265869
1164.931828	-314.170685	-232.218002	985.312134
1164.935157	-306.397430	-227.659271	995.189331
1164.938498	-298.741089	-223.392746	1007.813599
1164.941832	-291.376984	-220.587372	1016.814209
1164.945155	-283.545288	-215.444183	1027.392700
1164.948498	-274.895386	-211.236130	1036.334839
1164.951826	-265.602570	-205.800705	1046.270630
1164.955198	-257.244904	-200.482178	1055.271240
1164.958491	-248.010529	-195.689651	1064.973145
1164.961836	-238.542358	-189.669785	1073.564575
1164.965156	-228.782013	-185.344833	1081.630127
1164.968488	-220.307419	-179.091187	1089.227905
1164.971827	-210.430176	-173.655762	1096.358276
1164.975160	-200.143784	-166.642319	1104.657593
1164.978488	-189.331390	-160.564011	1110.034546
1164.981818	-178.869675	-153.959686	1117.515503
1164.985151	-168.407959	-146.946228	1123.243164
1164.988493	-157.069550	-139.932785	1128.094116
1164.991820	-146.023376	-131.925766	1133.295776
1164.995157	-134.158981	-124.503212	1138.322021
1164.998504	-122.995911	-117.606659	1142.588623
1165.001817	-110.897720	-109.950317	1145.744629
1165.005149	-99.909988	-102.703094	1149.368286
1165.008484	-87.402679	-94.929863	1152.874878
1165.011820	-76.005844	-86.864410	1153.284058
1165.015148	-63.206310	-78.740501	1155.329712
1165.018483	-51.108128	-71.376389	1157.375244
1165.021836	-38.834599	-63.720047	1156.790771
1165.025148	-26.736412	-55.537697	1158.018188
1165.028488	-14.170662	-47.881355	1158.602661
1165.031818	-1.663355	-40.517242	1157.550659
1165.035149	11.077732	-32.685562	1155.855591
1165.038483	24.169491	-24.970778	1154.628296
1165.041851	36.443016	-15.677966	1150.537231
1165.045151	49.125656	-9.073641	1148.725342
1165.048480	61.048508	-1.475746	1146.212158
1165.051815	73.322037	5.303917	1142.705444
1165.055148	85.946228	12.843367	1137.796143
1165.058485	97.927521	19.681471	1133.471069
1165.061815	110.025711	27.337812	1129.789062
1165.065142	121.714783	34.234367	1124.353638
1165.068480	133.929871	41.247803	1118.567505
1165.071808	145.385147	47.326126	1112.606079
1165.075145	156.606659	54.047348	1106.469360
1165.078475	168.120392	60.593224	1099.806519
1165.081815	178.699005	67.431328	1091.448853
1165.085161	189.394501	73.743423	1084.143188
1165.088485	201.025131	79.471069	1077.071411
1165.091818	211.837524	86.016945	1068.538208
1165.095149	221.071884	91.452362	1058.544189
1165.098478	230.949142	97.822906	1049.835815
1165.101813	240.884857	104.310349	1040.952148
1165.105139	249.768539	109.921104	1032.711304
1165.108472	259.412048	115.707191	1022.424927
1165.111806	267.535950	121.960854	1012.781372
1165.115142	276.127411	127.162483	1000.975464
1165.118476	284.601990	132.773224	991.273560
1165.121806	293.018097	137.916412	980.987061
1165.125141	300.499115	143.585617	969.882568
1165.128505	308.564575	148.611908	958.836304
1165.131804	315.519562	153.404434	947.498047
1165.135143	322.766815	158.255402	936.919312
1165.138475	328.728210	163.164810	924.996460
1165.141805	334.748108	167.723541	913.541138
1165.145142	341.001740	172.282288	901.150757
1165.148475	346.554077	176.256577	890.572266
1165.151808	352.340149	180.639984	879.584473
1165.155136	357.541779	184.322021	866.960327
1165.158470	362.392761	188.530090	855.037476
1165.161844	367.477478	191.452362	843.289917
1165.165142	372.562256	194.900635	831.074829
1165.168477	376.887207	197.881332	820.262329
1165.171845	381.153717	200.219177	808.222778
1165.175134	385.127991	203.375214	796.708862
1165.178468	389.219177	206.531265	785.604370
1165.181803	392.316772	208.518402	772.687866
1165.185134	395.706604	210.154861	762.518433
1165.188465	398.979553	212.492676	750.654053
1165.191793	401.434265	214.479828	739.607788
1165.195135	404.414978	216.116302	727.977173
1165.198471	406.869659	217.928101	717.457031
1165.201801	408.915253	218.687881	706.644653
1165.205133	410.902374	219.856812	696.241333
1165.208468	413.357086	220.558136	685.078369
1165.211799	414.467560	222.194626	673.973755
1165.215146	415.811798	222.603729	663.161377
1165.218467	417.857391	223.947983	653.459351
1165.221793	419.084747	224.590866	643.114624
1165.225128	419.727631	225.526001	632.302246
1165.228466	420.019867	226.052017	622.600220
1165.231815	421.714783	226.110458	614.301025
1165.235132	421.597900	227.104019	603.371704
1165.238464	422.533020	227.104019	592.559326
1165.241802	422.591461	228.448273	584.143188
1165.245124	422.591461	228.272934	574.499756
1165.248464	422.649902	228.740494	564.388672
1165.251797	422.299255	229.208054	555.037354
1165.255127	422.182373	229.734055	546.329102
1165.258483	421.948578	229.967850	537.270020
1165.263096	420.487427	230.026291	519.911743
1165.266491	419.727631	230.260086	511.378693
1165.269852	419.201630	230.260086	502.553436
1165.272745	418.324951	230.318527	494.488007
1165.276455	416.980713	230.786087	486.013458
1165.279788	415.694916	230.610748	478.298676
1165.282723	415.519562	229.967850	470.174744
1165.286005	414.000000	230.143188	462.810669
1165.289335	412.363525	229.967850	453.517822
1165.292766	411.720642	230.084747	445.569275
1165.296050	410.201050	229.383392	439.315613
1165.299322	408.623016	228.915833	432.711273
1165.302666	407.863220	228.506699	425.405609
1165.305970	405.817657	228.272934	417.983063
1165.309331	405.057861	227.746933	412.664520
1165.312665	403.421387	227.454712	404.832825
1165.316044	401.843353	226.578018	399.339020
1165.319421	400.615997	225.409119	392.676208
1165.322721	398.804199	225.701324	386.597931
1165.326001	397.985962	224.298645	380.753387
1165.329301	396.115723	222.895950	375.551727
1165.332639	395.414368	222.779083	369.824066
1165.335986	393.544128	221.727066	364.622437
1165.339326	392.550537	221.084167	358.427246
1165.342721	390.680298	219.389252	353.810059
1165.346073	388.634705	219.155457	349.309753
1165.349401	387.816467	218.512558	344.458801
1165.352632	386.472229	217.285202	338.964935
1165.355986	384.601990	216.992966	333.295715
1165.359294	382.848633	215.648743	329.672119
1165.362696	381.855072	215.181183	324.412048
1165.365991	381.036804	214.129166	319.677979
1165.369404	378.991211	213.544693	315.469910
1165.372714	376.478088	213.194031	311.612518
1165.375579	375.016937	212.025116	308.456451
1165.379296	373.205139	211.382217	303.722382
1165.382631	372.503815	210.447098	299.689636
1165.385997	370.808899	209.570435	295.540039
1165.388880	368.821747	209.395096	292.383972
1165.392206	367.886627	208.343079	288.585052
1165.395568	365.782562	208.226181	284.552307
1165.398908	365.315002	207.349487	281.630035
1165.402231	363.503204	206.355927	278.473999
1165.405561	361.808289	205.537704	275.025726
1165.408876	360.464050	205.479233	271.986542
1165.412202	359.061371	205.362366	269.064270
1165.415535	357.366455	204.251877	265.323792
1165.418893	356.139099	203.901215	262.810638
1165.422195	354.385742	203.024551	260.005249
1165.425527	353.158386	202.966095	257.492096
1165.428869	351.989471	202.907654	254.862061
1165.432235	350.820557	202.030960	252.348907
1165.435559	349.359436	201.329636	249.426636
1165.438958	348.190521	201.212738	247.147278
1165.442210	347.547638	200.277618	244.400360
1165.445536	346.437164	199.985382	242.413208
1165.448902	345.735809	199.050262	239.374054
1165.452200	344.391571	198.641129	237.796021
1165.455533	343.047333	198.465805	236.276459
1165.458863	341.878448	197.939804	234.639984
1165.462206	340.651093	197.296906	232.886627
1165.465545	340.651093	196.595551	230.841034
1165.468900	339.365265	196.420212	229.613678
1165.472233	338.663940	195.660416	228.035660
1165.475606	338.488617	194.549957	225.580948
1165.478865	337.202820	195.017532	223.769135
1165.482197	336.910583	194.316193	223.476913
1165.485535	335.683228	193.673279	222.483353
1165.488863	335.274109	192.621277	220.788422
1165.492219	334.981873	192.796616	219.736404
1165.495522	333.345398	192.445938	218.859741
1165.498856	333.462311	191.393921	217.398590
1165.502259	333.579193	191.744583	216.463470
1165.505103	332.760956	191.101685	215.820572
1165.508441	332.001160	190.634125	215.586807
1165.511767	331.942719	190.517227	214.710114
1165.515106	330.949127	189.991226	213.365860
1165.518491	330.364716	189.874344	212.722961
1165.521764	329.604919	189.932770	211.670944
1165.525103	329.546448	189.582108	211.144943
1165.528472	329.078888	189.231445	210.969620
1165.531763	328.494446	189.815903	209.800690
1165.535120	328.377563	189.640564	209.800690
1165.538431	328.377563	189.874344	208.865570
1165.541766	327.968445	189.640564	208.807129
1165.545092	327.676208	190.225006	207.872009
1165.548431	327.910004	189.699005	208.924026
1165.551764	327.442444	189.523666	208.456467
1165.555097	326.741089	189.991226	207.872009
1165.558432	326.390411	190.341904	207.346008
1165.561760	326.799530	190.458801	207.170654
1165.565092	326.448853	190.575699	207.462875
1165.568429	326.624207	190.634125	208.222672
1165.571759	326.974854	190.634125	208.164230
1165.575094	326.565735	190.984787	208.105774
1165.578434	326.974854	190.809464	209.274689
1165.581761	327.325531	191.218582	209.274689
1165.585116	327.500854	190.867905	209.742264
1165.588441	327.617767	191.160126	210.443588
1165.591760	327.910004	191.744583	210.385147
1165.595089	328.202209	191.978378	211.144943
1165.598427	328.552887	191.803024	211.963181
1165.601767	328.903564	192.036819	212.606064
1165.605094	329.195801	192.036819	213.950317
1165.608428	329.955566	192.445938	214.008759
1165.611757	330.306244	192.095261	214.593216
1165.615128	331.241364	192.504379	216.171234
1165.618419	331.592072	192.562820	217.223267
1165.621758	332.176483	193.147278	217.632385
1165.625090	332.994751	192.913498	219.853302
1165.628423	334.163635	193.439499	219.502640
1165.631763	334.455872	193.790176	221.255997
1165.635090	334.981873	194.433060	222.834015
1165.638419	335.800110	194.316193	223.886032
1165.641754	336.676788	195.017532	225.580948
1165.645093	336.969025	195.368195	226.808304
1165.648424	338.021027	195.777313	228.737000
1165.651759	339.073059	196.654007	230.198120
1165.655086	339.657501	196.712448	231.951492
1165.658465	340.358856	197.472229	233.412628
1165.661764	341.527740	198.115128	235.867340
1165.665094	342.287537	198.232025	237.328461
1165.668419	342.813568	199.459381	239.315613
1165.671751	343.865570	200.043823	241.244293
1165.675089	344.566925	200.745178	243.523682
1165.678418	345.618927	201.271179	245.510803
1165.681756	346.612488	201.680298	247.497955
1165.685079	347.372284	202.966095	250.829346
1165.688419	348.541199	203.082993	252.641144
1165.691748	349.710114	204.485672	254.803619
1165.695079	350.352997	205.420807	257.258331
1165.698419	352.223267	205.654572	260.531281
1165.701781	353.509033	206.297485	263.336670
1165.705085	354.385742	207.407944	265.557587
1165.708413	355.613098	208.284607	267.661591
1165.711754	357.249542	209.102859	271.577454
1165.715081	358.184692	209.570435	274.324371
1165.718411	359.470490	210.447098	278.181763
1165.721744	360.697845	210.856216	282.331390
1165.725091	362.275848	211.557556	286.130341
1165.728417	362.860321	212.843369	288.994171
1165.731751	365.022766	213.018707	292.208649
1165.735075	366.542358	214.362930	295.949158
1165.738416	367.769714	214.947388	299.981873
1165.741745	368.821747	215.239624	304.482178
1165.745110	370.808899	216.350082	307.988892
1165.748408	372.620667	217.518997	312.839874
1165.751745	374.023376	217.869659	317.281708
1165.755076	375.835175	218.161896	322.249542
1165.758410	377.179443	219.155457	326.165405
1165.761748	378.757446	219.447678	330.256592
1165.765080	380.978363	220.090576	335.341339
1165.768412	383.257751	220.616592	339.490936
1165.771741	383.900635	222.194626	344.283447
1165.775072	385.712463	221.902390	350.770905
1165.778410	387.582703	222.837509	355.271210
1165.781742	389.102264	223.305084	360.005249
1165.785073	390.388092	224.707764	365.148437
1165.788431	391.615417	224.883102	370.525421
1165.791747	392.901245	225.701324	376.369965
1165.795079	394.537689	227.045578	381.922302
1165.798411	395.472809	227.571579	387.416107
1165.801739	398.044434	228.156036	394.780243
1165.805077	398.161316	229.032730	400.098755
1165.808405	399.680878	229.734055	406.293976
1165.811739	401.258911	231.136749	412.547638
1165.815075	402.194031	231.136749	419.035065
1165.818409	403.129150	232.071869	424.704254
1165.821745	405.057861	233.708359	431.893066
1165.825073	406.518982	234.234360	439.724731
1165.828401	406.986542	235.578598	446.095276
1165.831739	407.863220	235.578598	454.394531
1165.835072	409.441254	236.396835	462.869080
1165.838412	410.668610	237.098190	468.888947
1165.841730	411.311493	237.741074	477.188202
1165.845069	411.311493	238.325546	483.734070
1165.848399	412.772644	238.559311	492.208649
1165.851737	413.240204	238.909988	499.806549
1165.855067	414.058441	238.968430	508.339569
1165.858398	414.467560	239.435989	516.521973
1165.861732	415.402679	239.669785	524.996460
1165.865092	415.694916	239.260666	534.114014
1165.868414	416.220917	239.435989	542.763916
1165.871733	415.928711	239.319107	551.413818
1165.875107	416.805359	239.202225	561.057251
1165.878395	417.097595	238.851547	569.882568
1165.881746	416.396271	238.208664	579.993530
1165.885067	416.571594	239.026871	588.994141
1165.888400	416.337799	237.331955	598.988281
1165.891726	416.337799	236.630630	608.397949
1165.895063	415.870239	236.572159	618.742798
1165.898393	414.409119	235.812363	628.795410
1165.901725	414.350677	234.760376	639.666260
1165.905061	414.116882	233.182327	648.199341
1165.908401	411.954407	232.305664	658.836304
1165.911731	411.194611	231.136749	669.531860
1165.915066	410.434814	230.026291	680.168945
1165.918420	408.564575	229.558731	689.929321
1165.921726	406.928101	227.746933	700.098755
1165.925059	405.291626	226.636459	710.560547
1165.928394	403.304504	225.292221	721.665039
1165.931730	400.499115	224.064865	731.893066
1165.935057	399.330200	222.662186	742.120972
1165.938444	396.232605	221.142593	753.401001
1165.941727	392.375214	219.447678	764.680908
1165.945061	390.446533	218.278793	775.259521
1165.948391	386.998260	216.408539	785.428955
1165.951723	383.608398	214.012268	795.890625
1165.955058	379.049683	212.200470	807.871948
1165.958391	375.133820	209.336639	819.502563
1165.961756	370.808899	207.583282	830.899536
1165.965060	366.425476	204.836349	841.361206
1165.968397	361.808289	202.615433	852.465820
1165.971725	357.191101	199.400925	862.810669
1165.975050	351.171234	196.887772	874.908813
1165.978390	346.612488	193.030380	885.545898
1165.981721	340.709534	190.166565	896.358276
1165.985053	335.566345	186.776733	907.170654
1165.988392	328.903564	182.685562	917.983032
1165.991719	322.883698	179.061951	929.905884
1165.995053	316.162476	174.795441	940.776733
1165.998383	308.973694	170.412033	951.413818
1166.001716	302.369385	166.554642	962.518433
1166.005072	295.239044	161.411453	972.454102
1166.008396	287.641144	156.560486	982.506714
1166.011726	280.744598	151.475739	994.020386
1166.015049	272.679138	146.449448	1003.079468
1166.018382	264.789001	140.488007	1013.365967
1166.021713	257.308014	134.877258	1022.658691
1166.025048	248.248978	129.850952	1031.600830
1166.028385	239.540619	123.831093	1040.133789
1166.031717	230.306244	117.752785	1048.959106
1166.035058	221.656342	111.849800	1058.368896
1166.038383	212.188187	105.946823	1065.323853
1166.041717	203.129166	98.991814	1073.272339
1166.045054	193.193451	92.796616	1080.987183
1166.048407	183.549957	86.659851	1087.766846
1166.051712	172.912903	80.230858	1095.715454
1166.055051	162.743423	74.152550	1103.020996
1166.058383	152.866165	67.665108	1108.339600
1166.061709	141.878433	61.353012	1114.301025
1166.065046	131.241379	54.222679	1119.210449
1166.068381	120.195206	47.735245	1124.002930
1166.071717	109.441254	40.955582	1128.795532
1166.075044	98.395096	34.468147	1133.588013
1166.078427	87.816483	28.389830	1136.393311
1166.081713	75.484512	21.727060	1139.257202
1166.085040	64.555237	15.064291	1143.757568
1166.088376	52.983047	8.401520	1145.978394
1166.091748	41.469315	1.680304	1148.433105
1166.095047	29.137346	-4.339568	1149.660522
1166.098381	17.039158	-11.586791	1152.290527
1166.101715	5.116306	-19.243134	1152.348999
1166.105048	-6.105202	-26.607246	1154.569946
1166.108373	-17.092926	-33.503799	1153.634766
1166.111711	-28.431328	-40.341904	1153.284058
1166.115038	-40.354176	-46.478668	1154.160767
1166.118377	-51.867916	-54.193459	1153.225586
1166.121710	-63.673870	-61.148453	1151.355347
1166.125039	-74.661606	-68.161896	1149.485107
1166.128375	-85.883118	-74.532433	1147.322632
1166.131707	-96.403275	-81.954994	1145.627808
1166.135040	-108.092346	-88.734657	1141.068970
1166.138374	-119.080078	-96.098770	1138.438965
1166.141709	-130.360031	-102.878433	1134.640015
1166.145036	-140.061951	-109.424309	1130.782593
1166.148377	-150.757462	-116.145531	1125.230347
1166.151703	-161.102280	-122.632965	1121.139160
1166.155041	-171.154877	-129.821747	1116.288208
1166.158372	-181.265930	-135.724716	1110.794312
1166.161704	-191.260071	-142.562836	1104.540649
1166.165037	-200.377563	-148.933380	1099.572876
1166.168367	-210.021042	-155.070145	1091.332031
1166.171701	-218.846298	-160.856232	1084.903076
1166.175040	-227.554657	-166.350098	1077.305054
1166.178387	-236.029205	-172.545303	1071.869751
1166.181700	-244.503815	-177.688492	1062.109375
1166.185038	-252.744598	-182.831680	1054.569946
1166.188369	-260.926941	-187.916428	1047.381104
1166.191704	-269.050873	-192.942734	1038.263550
1166.195030	-276.181183	-197.033905	1030.315063
1166.198368	-283.194641	-202.469330	1020.028687
1166.201701	-290.149628	-206.443604	1012.255493
1166.205034	-297.747528	-210.242554	1003.313354
1166.208379	-304.527191	-214.625961	993.202271
1166.211708	-310.839264	-218.424911	984.552368
1166.215040	-317.326721	-221.756302	974.441284
1166.218371	-323.580353	-224.912338	964.973145
1166.221700	-329.074249	-228.068375	955.095825
1166.225032	-334.977234	-230.932220	945.686157
1166.228362	-341.113983	-234.322052	935.867310
1166.231701	-345.497375	-237.185867	923.535400
1166.235029	-350.173004	-239.699005	914.184082
1166.238391	-355.257751	-242.562851	904.715942
1166.241692	-359.991821	-244.783768	894.195801
1166.245026	-364.784332	-247.413803	883.617187
1166.248364	-369.109283	-249.284058	873.798340
1166.251702	-372.089996	-251.797195	863.278198
1166.255030	-376.531860	-253.901230	853.634644
1166.258357	-380.272339	-256.414398	842.354736
1166.261695	-384.012848	-257.817078	832.711304
1166.265020	-387.168945	-259.453522	822.307983
1166.268361	-389.506714	-260.914673	812.080078
1166.271695	-392.253632	-262.901794	801.209229
1166.275024	-395.175934	-264.538269	790.630615
1166.278353	-397.279968	-266.233215	782.097534
1166.281720	-400.085358	-267.694336	771.285156
1166.285026	-401.780273	-268.629456	760.998779
1166.288353	-403.299805	-269.798370	750.420288
1166.291695	-405.286987	-271.084167	740.776733
1166.295027	-406.631226	-272.545288	731.191650
1166.298353	-407.917023	-273.246643	721.197510
