time (s)	magX	magY	magZ
3201.854777	-192.896561	-125.905899	102.553474
3201.858112	-195.059036	-128.360611	105.767975
3201.862808	-199.559326	-130.756866	111.670959
3201.866128	-202.598480	-132.568680	114.885452
3201.869443	-205.228516	-134.263580	118.333725
3201.872744	-207.507904	-136.133835	121.781998
3201.876132	-210.021042	-137.068970	126.574509
3201.879474	-212.358856	-138.413208	129.204559
3201.882829	-214.579773	-140.575699	133.412628
3201.886150	-217.385147	-141.861481	136.685562
3201.889483	-219.547623	-143.907074	141.536530
3201.892777	-222.294571	-145.368210	145.452362
3201.896210	-223.931046	-147.530685	149.134415
3201.899523	-227.087097	-149.400940	153.634720
3201.902821	-229.775574	-151.037415	158.135010
3201.906155	-232.580948	-153.316772	162.459961
3201.909516	-234.977234	-154.953247	167.953827
3201.912812	-237.607239	-156.823502	172.921677
3201.916170	-240.529510	-158.518417	177.480423
3201.919502	-243.218018	-160.564011	183.967850
3201.922855	-245.906494	-162.784927	188.994171
3201.926154	-248.770294	-164.830505	195.306244
3201.929494	-251.283447	-167.694336	202.319687
3201.932802	-254.556396	-169.623032	208.807129
3201.936212	-257.127991	-172.194626	215.060776
3201.939102	-260.517822	-174.649338	222.249557
3201.942790	-263.206329	-176.285812	230.431915
3201.945718	-265.544128	-179.558746	238.029816
3201.949410	-268.291077	-181.838104	246.387512
3201.952756	-271.154877	-184.059036	255.504974
3201.955666	-273.317352	-186.513733	264.563995
3201.958985	-276.473389	-188.442429	273.097015
3201.962299	-279.220337	-191.247818	283.324951
3201.965692	-282.493286	-192.650497	292.617767
3201.969035	-283.603729	-195.280548	303.663940
3201.972288	-286.409119	-197.150787	313.599670
3201.975621	-289.039154	-199.021042	324.236694
3201.978963	-291.201630	-201.241974	335.808899
3201.982302	-292.954987	-203.404449	346.562836
3201.985641	-294.766815	-204.514908	358.018097
3201.989044	-297.104614	-205.917603	368.888947
3201.992405	-298.215088	-207.612518	381.513153
3201.995685	-299.384003	-208.664520	392.676208
3201.998977	-300.669800	-209.541199	405.709564
3202.002285	-302.773804	-210.534775	416.463470
3202.005614	-303.066040	-210.885452	429.905884
3202.008971	-304.059631	-211.469910	441.887177
3202.012303	-304.176483	-211.645248	455.914062
3202.015716	-304.819427	-212.346588	468.713623
3202.019042	-304.877869	-211.879028	482.097626
3202.022357	-304.293396	-212.112808	494.254242
3202.025604	-303.708923	-211.353012	508.865570
3202.028963	-303.592072	-211.645248	521.139038
3202.032300	-302.189362	-211.586807	534.055542
3202.035676	-300.202240	-210.827011	548.023926
3202.038964	-298.916443	-210.593231	560.765015
3202.042390	-296.520172	-209.424316	574.967285
3202.045703	-293.422546	-208.606079	588.059082
3202.048944	-290.734070	-207.378738	602.202759
3202.052274	-286.876678	-206.443604	616.054321
3202.055631	-283.136169	-205.391586	629.496704
3202.058955	-278.752777	-202.878448	644.634155
3202.062301	-272.732910	-201.125076	658.602539
3202.065211	-266.829926	-199.079498	672.687866
3202.068534	-260.400940	-195.689651	687.123901
3202.071883	-253.621277	-193.468735	701.267700
3202.075229	-245.964935	-190.312683	714.710083
3202.078943	-238.191711	-186.981293	729.146118
3202.082275	-229.834015	-182.597900	742.120972
3202.085220	-221.125656	-178.740509	755.621826
3202.088515	-211.891296	-173.947998	768.129150
3202.091850	-202.014038	-168.629456	781.220947
3202.095181	-190.792511	-163.603165	792.851562
3202.098516	-179.687912	-158.284637	804.014648
3202.101861	-167.998840	-151.388092	814.476318
3202.105199	-156.017548	-144.725311	824.996460
3202.108540	-144.328461	-137.010529	834.756958
3202.111847	-131.412048	-130.464645	842.646973
3202.115179	-118.437164	-122.925194	850.653931
3202.118517	-105.637650	-115.502625	857.141479
3202.121850	-91.844528	-107.904732	862.869141
3202.125177	-78.694321	-99.021034	867.427734
3202.128529	-65.018112	-90.546463	871.694336
3202.131843	-51.283466	-82.013443	875.551758
3202.135177	-37.665691	-72.428406	877.889526
3202.138527	-23.638809	-64.304504	878.941528
3202.141876	-10.254824	-54.894798	880.694946
3202.145221	3.655172	-46.186440	880.461182
3202.148510	17.156048	-37.244301	880.928711
3202.151852	32.118061	-28.302162	877.831177
3202.155172	45.326710	-19.476913	876.136108
3202.158528	58.710693	-9.716540	873.506104
3202.161842	72.036240	-1.417299	869.473389
3202.165214	85.420227	6.823496	863.745728
3202.168505	98.278198	15.122736	859.303955
3202.171867	111.545288	22.486849	853.342529
3202.175205	124.286377	30.084745	845.686157
3202.178530	136.443008	36.864410	838.848022
3202.181902	149.067215	44.579193	831.951416
3202.185178	160.990067	51.417305	822.600220
3202.188508	173.497360	58.547630	813.307373
3202.191838	185.127991	65.151955	803.313354
3202.195179	196.583282	70.996498	792.734619
3202.198502	207.512558	77.367035	782.156006
3202.201854	218.266510	83.211571	770.759155
3202.205173	228.669785	88.471657	759.070190
3202.208562	238.547043	94.316193	746.504395
3202.211854	248.599655	99.926941	733.120361
3202.215195	257.249542	105.011696	719.502686
3202.218507	265.724152	109.921104	706.995361
3202.221829	274.140259	114.538277	692.676270
3202.225174	281.971924	119.213905	678.590820
3202.228506	289.511383	123.480415	664.154907
3202.231856	295.531281	127.922264	649.777344
3202.235168	302.310913	132.364105	634.873779
3202.238503	307.629456	135.929276	619.853271
3202.241829	312.188202	139.260666	605.943237
3202.245183	316.396271	142.358261	590.981323
3202.248079	320.604309	145.514313	576.369995
3202.251424	324.227936	148.553482	561.583252
3202.254756	326.741089	151.884857	547.205688
3202.258084	329.721771	154.865570	533.237305
3202.261411	331.825836	156.852707	518.859741
3202.264735	333.053192	159.482758	504.540619
3202.268075	334.689636	161.177673	491.448883
3202.271407	335.390991	163.223251	477.889526
3202.274740	335.098755	164.801285	464.154877
3202.278074	335.975464	165.502625	450.770905
3202.281403	335.800110	166.788422	438.088287
3202.284735	335.332550	167.723541	426.165375
3202.288071	334.397430	168.424896	414.943878
3202.291401	333.754517	170.002914	402.845703
3202.294772	332.585632	168.834000	390.805969
3202.298073	331.299835	169.360016	379.467590
3202.301398	330.773804	169.418457	368.479858
3202.304740	329.195801	169.009354	358.018097
3202.308068	327.208649	168.249557	347.790192
3202.311402	325.279938	168.191101	337.796021
3202.314734	323.701935	167.781998	327.918762
3202.318065	321.831665	166.437759	318.158386
3202.321402	319.552307	165.677963	308.690247
3202.324757	316.863831	163.924591	298.812988
3202.328073	314.584442	162.989471	290.163055
3202.331396	312.363525	161.762131	280.461151
3202.334733	310.259491	160.242538	272.045013
3202.338088	307.337250	158.722961	262.985962
3202.341403	305.057861	157.495621	254.686737
3202.344728	302.310913	155.157806	246.679718
3202.348063	299.213318	154.456451	238.614258
3202.351398	296.291077	152.878418	229.905914
3202.354732	292.784332	150.832840	222.541779
3202.358066	290.446533	149.488602	215.177673
3202.361396	287.232025	147.793686	208.047333
3202.364729	283.725311	146.507874	201.150803
3202.368064	280.803040	144.403854	194.254227
3202.371397	278.056091	142.942719	187.766815
3202.374727	274.666260	142.182938	180.168915
3202.378059	270.984222	140.137329	174.558151
3202.381396	268.003510	138.793091	168.713623
3202.384724	264.438354	137.215073	162.167740
3202.388059	261.749847	136.221497	157.258331
3202.391392	258.710693	134.818817	151.939804
3202.394724	256.372894	133.533005	147.030380
3202.398057	252.749283	132.130325	142.062546
3202.401390	249.417877	131.019867	137.503799
3202.404727	246.203369	130.026291	133.178833
3202.408061	243.105789	129.266510	128.970779
3202.411423	240.358856	127.454704	125.113388
3202.414729	237.670380	126.811806	120.846878
3202.418054	234.572769	125.116890	116.989487
3202.421388	232.059616	124.298668	113.658096
3202.424731	229.312683	123.480415	109.625366
3202.428053	226.331970	122.136177	106.936890
3202.431394	223.701935	120.616600	104.189941
3202.434720	220.896545	119.155464	101.150787
3202.438059	218.500290	118.161903	97.819412
3202.441385	216.513138	116.876091	94.195793
3202.444726	214.409119	115.473412	92.267097
3202.448050	212.421967	114.947395	89.929283
3202.451384	209.791931	114.070717	86.656342
3202.454746	207.454117	111.849800	83.850967
3202.458055	204.707184	110.564003	81.746933
3202.461384	203.187607	109.862648	79.993568
3202.464722	200.791351	108.869087	77.597313
3202.468052	198.278198	107.466393	75.376389
3202.471387	196.466385	105.829926	73.389252
3202.474723	194.829910	104.485680	70.934547
3202.478049	192.784332	103.258331	69.356514
3202.481380	190.738754	102.147873	66.258911
3202.484746	189.394501	101.154297	63.921097
3202.488049	186.706024	99.634727	62.810638
3202.491384	185.303329	98.115135	60.881943
3202.494720	183.199295	97.004677	59.596146
3202.498054	181.738159	96.186440	56.440094
3202.501381	179.926361	94.725304	55.095848
3202.504716	177.296310	94.549973	53.810051
3202.508044	176.010513	93.439514	51.939804
3202.511381	174.841614	92.387489	49.426651
3202.514713	172.971359	91.803040	48.257744
3202.518052	171.276443	91.101700	46.387489
3202.521403	170.049103	90.458801	45.277031
3202.524718	168.120392	89.056114	44.400352
3202.528050	166.191696	88.237877	43.523674
3202.531381	165.490356	88.179428	42.237877
3202.534715	163.386322	87.361198	40.952072
3202.538042	162.158966	87.711861	39.666275
3202.541384	161.165390	86.542953	38.205147
3202.544717	160.113388	86.250725	37.562244
3202.548040	159.061356	85.900063	36.276447
3202.551378	157.834000	85.315605	35.399769
3202.554714	156.723541	85.140266	34.523087
3202.558047	156.139099	84.789604	34.523087
3202.561379	154.444183	84.205147	34.698425
3202.564709	153.041489	83.620697	33.120399
3202.568045	153.041489	83.503799	32.302162
3202.571390	151.638809	83.094688	31.951492
3202.574706	151.112793	82.977791	31.483929
3202.578046	150.820572	82.393341	30.957916
3202.581372	149.417877	81.691994	31.250149
3202.584708	149.125656	80.990654	30.431911
3202.588040	148.132095	81.049103	29.730568
3202.591375	148.132095	80.581535	30.198132
3202.594707	147.489182	80.230858	29.730568
3202.598040	146.963181	79.763298	29.146114
3202.601374	146.144943	79.471069	28.327881
3202.604711	145.794281	79.237289	27.451199
3202.608100	145.326706	78.711281	27.860317
3202.611379	144.742249	78.535942	28.094101
3202.614718	144.099365	78.068382	26.749855
3202.618036	144.099365	77.483925	26.808300
3202.621373	143.631790	77.483925	26.749855
3202.624700	143.398010	76.665695	25.288719
3202.628038	142.696671	76.607246	24.996494
3202.631366	142.229111	76.724144	25.230274
3202.634698	141.060196	75.905907	24.002922
3202.638035	141.001755	76.081238	24.236706
3202.641370	140.475739	75.672127	23.301579
3202.644697	140.066620	75.321449	23.652252
3202.648036	140.475739	75.379898	23.769142
3202.651390	139.774399	75.379898	22.950905
3202.654703	139.306839	75.204559	23.009354
3202.658038	139.248383	74.853889	22.483345
3202.661363	139.423737	75.204559	22.424900
3202.664697	139.482162	75.146111	22.541790
3202.668030	139.482162	74.970779	22.775570
3202.671361	138.722382	75.438347	22.424900
3202.674701	139.189957	74.853889	22.775570
3202.678090	139.540619	74.737000	22.308006
3202.681371	138.897720	75.321449	23.067799
3202.684701	139.014603	75.847458	23.243134
3202.688027	139.599060	76.315018	23.476913
3202.691367	139.715942	76.782585	23.769142
3202.694734	139.657516	76.665695	23.652252
3202.698032	139.832840	77.133255	23.593803
3202.701363	139.832840	77.659264	23.827587
3202.704692	140.125076	77.659264	24.295151
3202.708027	140.534195	77.483925	25.405609
3202.711357	141.060196	78.302162	25.230274
3202.714695	141.995331	78.594391	25.814728
3202.718030	142.112213	78.769722	25.697838
3202.721363	143.047333	78.769722	25.931618
3202.724689	143.222687	78.711281	25.873173
3202.728023	143.807129	78.886612	26.282291
3202.731356	144.274689	79.061951	26.808300
3202.734694	144.742249	79.704849	27.334305
3202.738054	145.794281	80.230858	27.334305
3202.741359	146.320282	80.172409	27.801868
3202.744694	147.255402	80.347755	28.795444
3202.748038	147.547623	80.581535	29.730568
3202.751364	147.898315	80.406197	30.022793
3202.754688	148.891876	80.581535	30.373463
3202.758023	149.768555	81.224434	30.548801
3202.761358	150.411453	81.165985	31.016365
3202.764687	151.171249	81.691994	31.016365
3202.768022	152.457031	81.458214	32.535946
3202.771352	152.924591	82.451790	32.711285
3202.774690	153.625946	82.568672	32.594391
3202.778019	154.561066	83.153130	34.113972
3202.781391	155.613083	83.328468	34.815315
3202.784686	156.489761	83.971359	35.282879
3202.788022	158.067780	84.672707	36.276447
3202.791358	158.360016	84.906487	36.919346
3202.794688	159.938049	85.374046	37.562244
3202.798024	161.399170	86.192291	38.731152
3202.801355	161.866730	86.192291	39.374050
3202.804685	163.094086	87.536530	40.952072
3202.808019	164.146118	87.945648	41.594975
3202.811350	165.490356	89.172997	42.705437
3202.814682	167.068375	89.991241	43.932785
3202.818017	168.295731	90.341904	45.510818
3202.821375	169.464630	91.569260	46.153709
3202.824711	171.159546	92.796616	48.374634
3202.828014	172.737579	93.614845	50.011101
3202.831353	174.374039	94.433083	51.706017
3202.834681	175.601395	95.368210	52.699593
3202.838021	177.354767	96.420219	54.628288
3202.841345	179.108124	97.706024	56.849213
3202.844679	181.036819	99.342491	58.719460
3202.848019	182.731735	100.219170	60.005264
3202.851346	184.426636	101.037415	60.706604
3202.854687	186.121552	102.264755	63.336647
3202.858013	188.167160	103.082993	64.973114
3202.861350	190.212738	104.602570	67.486267
3202.864682	192.901215	105.187027	69.356514
3202.868041	194.420807	106.122154	72.103455
3202.871343	196.524841	106.531265	73.681473
3202.874679	199.213333	107.933952	76.603737
3202.878014	200.849792	108.693748	78.006432
3202.881345	203.772049	109.395088	80.344246
3202.884676	205.759201	110.564003	83.675636
3202.888014	207.629456	112.083580	85.721214
3202.891347	210.142593	112.726479	88.818825
3202.894722	212.421967	113.778496	91.273521
3202.898048	214.876678	114.246056	93.962013
3202.901345	217.565170	115.590309	97.760963
3202.904677	220.078308	117.285225	100.215660
3202.908007	222.357681	117.635887	103.021034
3202.911354	224.870819	118.746346	106.761551
3202.914677	227.267105	119.798363	110.092926
3202.918010	230.014008	120.616600	113.248978
3202.922639	235.390991	123.655754	120.554642
3202.926049	237.962585	125.000008	123.769135
3202.928983	240.943314	126.285789	127.743423
3202.932299	244.157791	127.045586	132.711273
3202.936033	246.320267	129.617172	136.218002
3202.939351	248.716553	130.376968	141.010529
3202.942690	251.872589	131.896545	146.679718
3202.945654	254.853302	133.825241	152.232025
3202.948878	257.308014	135.578598	156.907654
3202.952267	260.347168	137.215073	162.226181
3202.955606	263.152527	138.909988	167.895386
3202.958925	266.016357	141.014023	174.032150
3202.962185	268.529510	142.358261	179.935120
3202.965537	271.802460	143.936279	186.071899
3202.968846	274.958496	145.514313	192.559311
3202.972242	277.530090	147.384567	198.988312
3202.975545	280.686127	149.137924	206.644653
3202.978914	283.725311	149.839264	213.248962
3202.982281	286.472229	152.118637	220.087067
3202.985564	289.511383	152.995316	227.684967
3202.988844	292.492096	154.339554	235.049103
3202.992182	295.706604	155.917587	242.588531
3202.995558	298.395081	156.560486	251.706024
3202.998891	301.025116	158.372299	259.596161
3203.002257	303.830505	158.781403	267.544708
3203.005585	306.986542	160.067215	276.136169
3203.008929	309.265930	161.294556	285.312103
3203.012175	311.603729	161.645233	295.715363
3203.015514	314.000000	162.229691	304.248413
3203.018854	317.740479	162.346573	314.008759
3203.022204	319.669189	162.288132	324.061371
3203.025540	321.597900	162.521912	333.880188
3203.028954	324.052582	162.521912	344.108124
3203.032278	326.098175	162.755692	353.576263
3203.035519	328.377563	162.521912	365.382233
3203.038850	330.306244	162.755692	376.136169
3203.042183	331.066040	162.580353	387.708374
3203.045528	332.527191	161.820557	399.222076
3203.048869	334.046753	161.528336	411.495636
3203.052262	334.981873	161.060776	423.184692
3203.055592	334.981873	160.008759	435.516632
3203.058949	335.274109	159.132080	448.082397
3203.062183	335.157196	158.489182	462.284607
3203.065518	335.507904	157.378723	475.201019
3203.068836	333.929871	156.092926	488.292847
3203.072231	332.702515	154.807129	501.267670
3203.075527	331.767395	153.988892	516.521973
3203.078915	330.247803	152.352417	529.146118
3203.082266	327.851532	151.241959	542.705444
3203.085186	325.396851	149.079468	556.557007
3203.088843	322.182343	147.326126	572.337280
3203.092171	318.792511	145.280533	586.364136
3203.095079	314.642914	142.767380	600.683228
3203.098413	310.376373	140.721802	616.346558
3203.101775	305.057861	137.916412	629.496704
3203.105078	300.265350	134.234360	643.172974
3203.108431	293.894806	130.786087	657.492065
3203.111763	287.641144	127.220924	671.168335
3203.115112	280.919922	122.837517	685.545898
3203.118438	274.198700	118.863243	699.280518
3203.121744	267.009918	113.661598	712.197021
3203.125084	259.879608	108.985985	724.879639
3203.128411	251.405029	103.492111	738.789551
3203.131743	243.222672	97.180016	750.829346
3203.135084	234.455872	91.627708	761.758667
3203.138408	225.104614	84.614258	774.032104
3203.141741	214.818222	78.126831	784.902954
3203.145118	205.174744	70.528931	794.838623
3203.148438	194.596130	64.099945	805.709473
3203.151764	183.842194	56.618942	815.703735
3203.155078	172.737579	48.670372	824.879639
3203.158416	161.282288	40.429573	832.828247
3203.161743	150.177673	31.662771	839.841553
3203.165072	138.196381	23.831095	848.900635
3203.168409	125.396835	15.648745	854.803589
3203.171741	112.772644	6.706604	859.187012
3203.175072	100.440674	-1.241964	864.505493
3203.178409	86.998245	-10.067213	869.473389
3203.181354	74.198715	-19.535360	873.798340
3203.184647	60.931618	-28.886616	876.545288
3203.187986	47.372299	-37.419640	879.175293
3203.191319	33.403858	-45.192871	880.753418
3203.194646	18.266510	-54.076561	880.402710
3203.198020	4.181181	-62.142021	880.285767
3203.201315	-9.319695	-70.616600	878.766235
3203.204647	-23.112801	-78.389832	876.720703
3203.207976	-37.431911	-86.689072	874.207397
3203.211319	-52.043247	-94.053185	870.116333
3203.214643	-66.187027	-101.300407	865.674438
3203.217977	-79.161896	-109.132080	861.115723
3203.221313	-93.130341	-115.911751	854.920532
3203.224681	-106.865005	-122.808296	848.783691
3203.227978	-120.132095	-129.120392	841.536621
3203.231310	-132.873184	-135.315613	833.178833
3203.234644	-145.614273	-141.803040	823.944580
3203.237978	-157.420227	-147.238449	815.353027
3203.241310	-168.817062	-153.842789	803.956177
3203.244647	-180.447693	-159.102875	793.786621
3203.247975	-191.084747	-164.187607	782.974243
3203.251310	-201.195786	-169.389252	770.583862
3203.254641	-211.774399	-173.597321	758.251953
3203.257969	-220.190521	-178.974289	746.679687
3203.261303	-228.197556	-182.831680	733.412598
3203.264644	-236.789001	-187.215088	721.957397
3203.267995	-244.211578	-191.130920	708.865601
3203.271316	-251.108124	-194.696091	695.306274
3203.274641	-257.069550	-198.085922	682.156006
3203.277976	-263.849213	-202.060196	668.947388
3203.281304	-269.050873	-204.982468	654.862061
3203.284640	-273.960266	-208.080078	640.542969
3203.287974	-278.928101	-210.300995	626.808350
3203.291300	-283.019287	-212.697266	613.424316
3203.294639	-286.759796	-214.450623	599.514282
3203.297974	-289.448273	-216.203979	585.487427
3203.301306	-292.312103	-218.308014	571.226807
3203.304639	-295.059052	-218.834015	558.719482
3203.307965	-296.812378	-220.470505	545.101685
3203.311334	-298.215088	-221.113403	531.717773
3203.314637	-300.202240	-221.464066	518.041504
3203.317969	-301.312683	-222.632965	504.306854
3203.321300	-302.715363	-222.282288	491.331940
3203.324633	-303.007599	-222.048523	478.824677
3203.327962	-302.949158	-222.399185	465.206909
3203.331300	-303.650513	-220.879608	451.238434
3203.334634	-303.299835	-220.587372	438.555817
