time (s)	magX	magY	magZ
737.241266	-193.714783	-200.832840	1156.849243
737.244597	-181.149033	-194.053192	1164.330322
737.247942	-167.765060	-187.273529	1171.109985
737.251268	-153.036819	-180.143188	1177.947998
737.254596	-140.471069	-173.071304	1185.078369
737.257932	-126.444183	-165.824081	1190.981323
737.261266	-112.358856	-158.693756	1196.358276
737.264595	-97.279953	-151.271194	1201.676880
737.267935	-82.843948	-143.731735	1204.482300
737.271266	-68.057281	-135.841614	1206.936890
737.274595	-52.803043	-128.068390	1209.567017
737.277959	-37.315018	-119.652252	1211.963257
737.281258	-22.060783	-111.995903	1212.781372
737.284593	-6.397429	-103.404442	1213.190552
737.287935	8.330800	-95.046753	1214.067261
737.291292	25.163063	-86.572174	1213.307495
737.294594	40.709526	-77.571594	1211.495728
737.297927	55.905319	-67.752777	1209.157837
737.301260	71.919342	-59.511978	1205.943359
737.304598	86.764465	-50.336060	1202.378174
737.307930	101.609589	-40.692581	1197.468750
737.311261	116.922272	-31.808884	1192.910034
737.314586	132.293396	-22.457626	1188.175903
737.317928	147.138519	-11.645237	1180.578003
737.321256	160.990067	-2.001753	1175.493286
737.324588	175.659851	7.115721	1168.655151
737.327919	189.745178	16.408533	1159.537720
737.331259	202.895386	25.701345	1151.355347
737.334583	216.746933	34.234367	1141.536621
737.337967	228.786652	43.527176	1131.717773
737.341259	241.177078	52.001755	1120.846924
737.344590	253.567505	60.125656	1111.963257
737.347918	264.730591	68.074226	1100.215698
737.351297	275.776764	75.964348	1088.877319
737.354586	286.589111	83.796028	1076.662231
737.357919	297.927521	91.569260	1065.499146
737.361258	308.213898	98.173584	1053.985352
737.364620	318.091187	105.537697	1040.133789
737.367923	327.968445	111.616020	1028.503174
737.371253	337.728821	117.402107	1015.294678
737.374583	346.028046	122.837517	1002.378174
737.377931	353.801270	129.208054	988.468140
737.381254	362.684967	134.000580	975.376343
737.384582	370.458191	138.442429	962.752197
737.387920	378.114563	142.884277	949.134399
737.391254	384.894196	147.384567	935.925781
737.394606	392.316772	151.066620	921.080688
737.397916	399.856201	154.514893	907.696655
737.401252	405.233185	158.138504	892.968384
737.404587	411.369934	161.645233	879.818237
737.407924	417.156067	165.327286	865.206909
737.411252	421.480988	168.483337	850.653931
737.414581	427.617737	171.814728	836.627197
737.417919	431.533630	174.152542	823.359985
737.421251	436.267670	176.899460	806.936890
737.424584	439.423706	179.821732	792.617798
737.427918	444.566925	182.042664	779.642944
737.431248	446.904694	185.257141	765.206909
737.434579	450.002350	187.478088	750.361816
737.437935	452.398590	189.932770	736.685547
737.441244	455.320892	192.504379	722.600220
737.444582	457.308014	194.491531	708.982422
737.447915	459.645782	196.303314	696.241333
737.451244	460.405579	198.290466	682.331421
737.454582	461.223846	200.043823	669.356567
737.457905	462.977234	202.264755	656.381714
737.461244	463.269409	203.667450	642.880737
737.464577	463.269409	205.596130	630.315063
737.467916	463.210968	206.180588	618.450562
737.471248	463.035645	208.693741	605.417358
737.474597	462.977234	209.395096	592.734619
737.477914	462.275848	210.622421	580.694946
737.481248	462.743439	211.265350	569.707153
737.484574	462.100494	212.025116	557.842773
737.487908	460.522522	212.726471	547.907104
737.491243	459.528931	213.544693	535.633545
737.494573	458.886047	214.362930	525.347168
737.497904	456.957336	214.421387	514.768555
737.501235	455.554626	214.012268	505.241974
737.504571	454.444183	214.713623	494.078949
737.507908	453.158386	214.012268	485.370544
737.511241	451.288116	213.603165	475.902405
737.514569	450.119202	213.369370	466.668030
737.517923	448.482758	213.369370	456.147858
737.521242	445.911163	212.901810	447.088867
737.524576	443.982452	212.142014	438.380463
737.527908	442.462860	210.739319	429.964355
737.531239	440.300415	210.330215	422.191101
737.534567	438.722382	209.453537	413.833435
737.537901	436.442993	208.810638	406.001770
737.541234	434.748077	207.817047	398.988281
737.544624	432.234955	207.291046	390.922821
737.547933	430.598511	206.180588	383.091156
737.551231	428.786652	204.602570	375.317963
737.554568	426.390411	203.258316	368.304474
737.557901	424.753967	202.440094	361.291046
737.561243	422.474579	201.563400	353.868500
737.564571	419.961426	200.862076	347.439514
737.567904	417.915833	199.459381	340.133820
737.571232	415.578033	198.699585	333.003510
737.574568	413.240204	197.706009	327.334320
737.577903	411.369934	196.946213	320.905334
737.581234	408.389221	195.485092	314.943878
737.584566	406.285217	195.134415	308.456451
737.587898	403.830505	194.257736	303.313263
737.591245	401.609589	193.264175	297.059601
737.594564	398.511993	192.270584	291.624176
737.597898	396.875488	191.686157	285.253632
737.601232	394.245453	190.984787	281.104034
737.604566	391.264740	190.751022	276.019287
737.607894	388.634705	189.523666	271.402100
737.611227	386.939789	189.173004	265.674469
737.614568	384.251312	189.056107	261.524841
737.617902	381.913483	188.120987	257.199890
737.621267	378.699005	187.594955	252.232025
737.624562	377.062531	186.542953	248.140869
737.627895	375.133820	186.250732	244.458801
737.631227	372.562256	185.607834	240.542969
737.634585	369.815308	184.789581	237.620697
737.637895	368.471069	184.029785	234.347748
737.641225	366.717682	183.737579	230.548813
737.644557	364.730560	183.094666	228.269440
737.647892	363.269409	181.750443	224.821167
737.651228	361.516083	180.932205	220.963760
737.654560	359.528931	179.997086	218.158386
737.657888	357.191101	179.646393	215.879013
737.661226	355.729980	178.594391	213.424316
737.664552	354.502625	177.367035	210.385147
737.667895	352.924622	176.724136	208.281128
737.671222	350.995911	176.022781	205.358856
737.674555	349.359436	174.736984	203.254822
737.677891	348.248993	174.152542	201.326126
737.681248	346.904724	173.626526	198.403854
737.684557	344.742249	172.223846	196.182938
737.687893	343.398010	172.048508	194.254227
737.691219	342.930450	171.230270	191.507309
737.694556	341.761536	169.710693	188.935699
737.697888	340.241943	169.126236	186.948563
737.701222	338.488617	168.191101	185.136765
737.704552	337.553467	167.665100	183.091187
737.707909	336.910583	166.729965	180.928711
737.711216	335.566345	166.496185	179.701355
737.714551	333.812988	165.736404	177.421967
737.717885	332.877838	165.093506	176.019287
737.721223	331.942719	164.918167	175.201050
737.724556	330.540039	163.983047	173.389236
737.727888	329.312683	163.632385	172.278778
737.731219	328.377563	163.457031	169.824081
737.734554	327.442444	162.872589	168.830505
737.737880	325.864410	162.814133	167.077148
737.741220	325.747528	162.521912	165.382233
737.744626	324.753967	162.054352	164.680878
737.747884	323.526611	162.697250	163.161316
737.751241	323.175903	162.229691	162.810638
737.754549	321.773224	162.405029	160.940384
737.757881	321.188782	161.411453	160.998825
737.761216	321.071899	161.762131	159.303909
737.764554	320.428986	161.236115	158.953247
737.767880	318.734070	161.586777	158.368790
737.771213	318.675598	161.995911	157.959671
737.774553	318.558746	161.879013	157.784348
737.777875	318.266510	161.762131	157.667450
737.781208	317.915833	161.469894	155.972534
737.784542	317.448273	160.710098	156.615433
737.787905	317.039154	161.352997	156.790771
737.791211	317.272919	161.236115	156.615433
737.794545	317.331390	160.943893	156.966095
737.797873	317.506714	160.943893	156.264755
737.801205	317.272919	160.768555	156.323212
737.804535	317.097595	160.943893	157.492111
737.807879	317.740479	160.885437	157.433670
737.811207	317.506714	161.177673	156.440094
737.814593	317.798950	160.768555	156.790771
737.817878	318.324951	160.943893	157.725891
737.821214	318.266510	160.534775	158.251907
737.824537	318.441833	160.417877	158.135010
737.827879	318.967834	160.242538	159.070129
737.831250	319.610748	160.300995	158.777908
737.834537	320.078308	159.541199	159.888367
737.837882	320.019867	159.307419	159.946823
737.841213	320.545868	159.891861	160.940384
737.844539	321.305664	159.541199	161.700180
737.847870	321.597900	159.716537	161.583298
737.851208	322.533020	160.242538	162.167740
737.854541	322.649902	160.300995	163.453537
737.857871	323.059021	160.534775	164.797775
737.861202	323.877258	160.768555	165.206894
737.864533	324.111023	161.060776	165.791351
737.867869	325.163055	161.294556	166.142014
737.871202	325.338379	161.762131	166.901810
737.874558	325.221527	162.814133	168.012268
737.877866	327.208649	162.755692	169.590302
737.881202	328.202209	163.807709	170.174759
737.884534	328.845123	163.866165	171.343658
737.887868	329.838684	164.684387	172.921677
737.891204	330.598480	165.444183	174.499710
737.894532	331.124512	165.853302	176.253067
737.897871	332.760956	166.788422	177.889542
737.901206	333.988312	167.255981	179.642883
737.904532	334.572754	168.600220	181.746933
737.907869	336.267700	169.301559	183.792511
737.911197	336.852112	170.002914	185.604340
737.914529	338.780823	170.938049	186.948563
737.917907	339.657501	171.113388	189.870834
737.921196	341.001740	171.756271	191.390411
737.924533	342.579773	172.282288	194.546463
737.927867	343.982452	172.691406	197.702530
737.931197	345.034485	174.094086	199.222092
737.934534	347.196960	174.035645	201.618362
737.937866	348.716553	174.736984	204.482178
737.941199	350.645233	175.263000	206.878448
737.944525	352.573914	175.964340	210.618942
737.947881	354.151978	176.665680	213.365860
737.951198	355.729980	177.367035	215.762131
737.954569	356.898865	177.834595	219.502640
737.957864	359.821167	178.360596	222.541779
737.961203	361.516083	178.828171	226.457611
737.964528	364.204559	178.828171	229.613678
737.967866	365.022766	179.003494	231.776169
737.971196	367.360626	179.821732	235.282867
737.974528	369.055511	180.756851	239.549408
737.977857	371.276459	181.282883	242.237885
737.981196	373.438934	181.575104	245.919952
737.984527	375.250732	182.334900	249.543549
737.987856	377.004089	183.036224	253.459381
737.991216	379.341919	183.737579	257.492096
737.994526	382.088837	184.614243	260.998840
737.997859	384.017548	184.964920	265.908234
738.001199	386.355347	185.900040	270.642334
738.004524	387.816467	187.127396	274.616608
738.007856	390.212738	188.120987	278.590881
738.011190	392.082977	188.822311	283.734070
738.014525	394.187012	189.815903	288.117493
738.017850	396.407928	191.335464	293.494446
738.021216	399.388641	192.329041	298.170074
738.024519	401.434265	192.971939	303.780853
738.027856	403.187622	193.848633	309.742249
738.031191	405.934540	195.134415	315.236115
738.034536	407.629456	196.478653	320.905334
738.037856	410.025726	197.296906	327.100525
738.041184	411.779083	198.991821	333.587952
738.044520	414.058441	199.810043	339.607819
738.047858	416.396271	200.686737	347.088837
738.051189	418.850983	201.621857	354.920502
738.054527	420.662750	202.206299	360.940369
738.057851	423.117493	203.258316	367.836914
738.061185	425.046143	204.427246	375.317963
738.064538	428.436005	205.596130	382.740509
738.067850	429.546448	206.005264	389.987701
738.072527	433.929871	207.115723	406.293976
738.075857	436.092316	207.407944	414.534760
738.079227	437.787231	207.817047	422.600220
738.082561	440.767944	208.226181	430.373474
738.085898	442.287537	208.927536	439.257141
738.089201	444.859131	208.459976	448.257721
738.092157	446.028046	208.518402	458.777893
738.095870	448.365875	208.869080	467.252502
738.098813	450.645264	208.167740	477.246613
738.102114	452.164795	208.050842	485.896545
738.105375	453.099915	207.992401	495.306244
738.108733	455.145508	207.817047	505.008148
738.112025	456.665100	207.700180	514.827026
738.115359	458.184662	207.466385	525.580933
738.118711	459.996521	206.239029	535.049072
738.122071	460.054932	206.239029	545.744629
738.125451	461.808289	205.245468	555.797241
738.128766	462.977234	204.894806	566.258911
738.132039	463.561676	204.193451	577.714233
738.135358	463.620087	204.135010	588.994141
738.138680	464.496796	203.024551	600.274170
738.142041	464.087677	202.907654	611.320312
738.145423	464.379883	201.446503	623.184692
738.148770	464.263000	201.212738	634.406128
738.152121	463.970764	200.569839	647.556396
738.155383	463.386292	199.576248	659.771484
738.158687	462.860291	197.998230	671.168335
738.162022	461.399170	197.296906	682.740479
738.165379	460.347168	196.011093	696.416748
738.168728	458.652252	195.075958	708.397949
738.172100	457.015747	193.614838	721.898926
738.175446	455.554626	192.621277	733.997070
738.178814	452.398590	190.341904	749.075928
738.182054	449.885468	188.004089	761.817017
738.185356	446.846283	186.601395	775.493286
738.188729	443.690247	184.205154	787.883667
738.192041	440.826416	181.516647	801.735229
738.195410	437.027466	179.237274	816.288086
738.198780	433.286957	175.905899	829.613647
738.202098	428.611328	173.684982	843.815918
738.205472	424.403290	170.236694	857.375244
738.208710	420.078308	166.846863	869.707153
738.212014	414.584442	162.638809	884.376953
738.215345	408.973694	157.846283	897.293457
738.218708	403.830505	153.871994	912.021606
738.222131	398.395081	149.722382	925.814819
738.225437	391.907654	144.228516	939.549438
738.228282	386.004669	139.903549	954.043823
738.231600	378.173004	133.825241	966.375732
738.235349	372.036255	128.389816	978.532471
738.238291	364.438354	123.012856	992.150146
738.241599	357.132660	116.525429	1004.657593
738.244926	348.833405	110.856224	1016.638794
738.248256	341.878448	104.368790	1029.204590
738.251598	332.585632	97.822906	1041.302734
738.254944	324.169495	91.277031	1053.576294
738.258277	314.409119	84.380478	1064.154907
738.261614	304.824066	78.243721	1075.727051
738.264965	295.180573	71.464058	1085.370605
738.268254	284.485107	64.918175	1096.650513
738.271592	274.198700	58.547630	1106.235596
738.274920	263.503235	51.709526	1116.171265
738.278254	252.807709	44.403862	1125.697876
738.281605	241.293976	36.805962	1135.575195
738.284930	229.488022	30.201635	1144.166626
738.288255	217.682053	22.779078	1152.173584
738.291607	205.466980	15.707190	1160.355957
738.294939	192.550552	8.518410	1168.070801
738.298273	179.517227	1.154297	1173.623047
738.301583	165.957916	-5.976038	1181.104126
738.304915	152.398605	-12.814144	1186.948608
738.308253	138.605484	-21.522501	1191.624268
738.311583	124.520157	-29.003506	1196.182983
738.314918	110.551727	-36.835182	1200.507935
738.318260	96.641724	-43.848625	1204.657593
738.321578	82.731735	-51.329628	1206.177124
738.324934	68.295731	-59.745758	1209.099365
738.328277	54.210403	-67.986557	1211.028076
738.331610	39.949738	-75.467567	1214.067261
738.334935	25.279953	-83.357681	1214.534790
738.338261	10.376388	-91.715370	1214.184204
738.341578	-3.708942	-99.313263	1213.599609
738.344912	-16.917591	-107.729393	1213.891846
738.348248	-31.762711	-115.561073	1211.904785
738.351575	-45.380482	-123.451195	1209.683838
738.354913	-58.998249	-131.750443	1206.060181
738.358249	-72.323792	-139.757446	1203.722412
738.361154	-85.590881	-148.173584	1200.390991
738.364487	-98.682632	-156.180603	1196.182983
738.367837	-111.715958	-163.778503	1190.163086
738.371156	-125.099945	-171.902390	1184.084839
738.374480	-137.139694	-179.675629	1178.883179
738.377817	-149.647003	-187.039749	1173.564575
738.381197	-160.926956	-194.228531	1166.492676
738.384482	-172.382233	-201.066635	1159.187012
738.387818	-184.363525	-207.904739	1151.764526
738.391156	-195.292801	-214.801285	1142.354736
738.394482	-206.163651	-221.113403	1134.172363
738.397817	-216.859146	-227.483948	1126.165405
738.401156	-226.210403	-233.679123	1115.937500
738.404487	-236.613678	-239.348343	1106.118652
738.407815	-246.549377	-244.783768	1096.241455
738.411166	-255.666870	-249.868515	1086.130371
738.414487	-265.661011	-255.596146	1074.207520
738.417822	-274.427826	-259.336639	1063.219849
738.421145	-284.305084	-263.369354	1051.881348
738.424485	-292.545898	-267.635895	1041.302734
738.427814	-300.143799	-271.727051	1030.081299
738.431148	-308.793701	-274.941559	1017.866211
738.434478	-317.385162	-277.805359	1005.592651
738.437813	-324.223267	-280.552307	991.857910
738.441144	-331.879608	-284.175903	979.935181
738.444480	-339.828186	-286.104614	968.655151
738.447828	-346.724731	-288.676208	954.920532
738.451166	-352.627716	-291.014008	942.004028
738.454500	-358.589111	-293.176483	926.691406
738.457814	-363.966095	-294.929840	914.885498
738.461149	-370.102844	-297.209229	900.507935
738.464478	-374.661621	-298.728821	888.409668
738.467807	-379.571014	-300.657501	873.564575
738.471145	-383.369965	-302.001740	861.115723
738.474474	-387.461151	-302.761536	848.725220
738.477811	-391.669220	-303.988892	835.808838
738.481137	-395.000610	-305.450012	821.080688
738.484474	-399.325562	-305.800690	807.930420
738.487805	-401.137360	-307.320282	796.066040
738.491180	-404.644073	-308.313843	782.915771
738.494474	-406.689636	-309.599640	770.993042
738.497804	-408.501495	-310.593201	757.375244
738.501143	-410.137939	-310.593201	745.569336
738.504475	-412.358856	-311.937469	733.178833
738.507806	-413.352448	-311.002350	720.613037
738.511143	-414.755096	-311.703674	708.164185
738.514471	-415.631805	-311.762115	697.644043
738.517809	-416.099365	-312.405029	685.312134
738.521138	-416.625366	-311.703674	673.856812
738.524500	-417.209808	-311.995911	662.752197
738.527805	-417.618958	-311.586761	651.764526
738.531136	-417.502075	-310.768555	640.250732
738.534508	-416.917603	-311.236115	627.918823
738.537802	-417.151367	-309.833405	618.099976
738.541151	-417.560486	-309.599640	607.638184
738.544469	-416.508484	-309.015198	597.001221
738.547803	-416.625366	-308.021606	586.480957
738.551133	-416.508484	-307.378723	576.662231
738.554470	-415.456482	-305.683777	566.025146
738.557803	-414.872040	-304.456451	556.557007
738.561128	-414.053772	-303.170654	547.673218
738.564469	-414.170654	-301.884857	537.971313
738.567800	-412.417328	-300.774384	528.327881
738.571136	-411.774384	-299.079468	518.859741
738.574473	-411.306854	-297.326111	510.151398
738.577807	-409.495026	-296.040314	501.326141
738.581132	-409.787262	-294.053192	492.793060
738.584463	-408.618347	-292.066040	483.558746
738.587799	-407.274109	-290.897125	476.662201
738.591131	-405.754517	-288.617767	469.298065
738.594460	-403.533600	-287.098175	460.297485
738.597793	-403.124481	-285.052612	450.420227
738.601125	-401.897156	-283.825256	443.815887
738.604461	-399.617767	-282.597900	435.867310
738.607793	-398.507324	-280.376984	428.561646
738.611129	-396.929260	-278.740479	421.489777
738.614461	-395.000610	-276.928711	414.593231
738.617791	-393.422546	-275.409119	407.053741
738.621161	-391.610779	-274.006439	401.267670
738.624458	-390.091187	-271.668610	394.838715
738.627800	-388.805389	-270.558167	388.292847
738.631126	-386.642883	-269.623047	382.331360
738.634456	-385.181763	-268.454132	376.194611
738.637791	-382.902374	-267.226776	371.109894
738.641130	-381.207458	-265.473419	365.031555
738.644463	-379.454132	-264.655182	359.245453
738.647790	-378.402100	-263.194031	354.745178
738.651124	-375.421417	-261.908234	348.374634
738.654459	-374.077148	-260.388641	344.049683
738.657803	-372.089996	-259.395081	338.964935
738.661127	-369.927521	-258.518402	333.003510
738.664466	-368.349518	-257.232605	329.496796
738.667794	-365.894806	-255.946823	324.645813
738.671130	-364.842804	-254.894806	319.210419
738.674464	-363.556976	-253.433655	315.352997
738.677786	-360.985413	-252.381668	311.086517
738.681118	-359.699585	-251.095840	306.527740
738.684453	-357.887787	-250.277618	303.079498
738.687793	-356.543549	-249.167160	298.696075
738.691122	-355.316193	-247.822906	295.890717
738.694473	-354.322632	-246.244888	291.799530
738.697790	-352.510803	-245.485092	288.585052
738.701119	-350.815887	-243.907074	284.844543
738.704455	-348.887207	-242.796616	280.578003
738.707785	-348.010529	-240.926361	278.532440
738.711120	-346.607819	-240.225037	275.259491
738.714453	-345.088257	-239.114548	271.577454
738.717782	-344.503815	-237.594986	269.064270
738.721117	-342.808899	-236.542969	266.083588
738.724464	-341.698425	-235.081818	263.745758
738.727821	-340.120422	-234.263596	260.531281
