time (s)	magX	magY	magZ
2305.398738	-353.796631	-214.509064	491.448883
2305.402002	-354.381073	-214.158401	503.722382
2305.405279	-354.848633	-214.684402	516.638794
2305.408615	-354.907074	-214.918182	529.263062
2305.411984	-355.023956	-214.450623	542.179443
2305.415328	-354.088837	-213.866165	555.212769
2305.418632	-353.796631	-212.931046	569.298096
2305.422028	-353.153717	-211.353012	583.149658
2305.425352	-351.751007	-210.067215	596.708984
2305.428651	-349.997650	-208.839859	611.261841
2305.431945	-349.179443	-206.385162	625.580933
2305.435325	-346.549377	-204.690247	640.367554
2305.438627	-344.094696	-202.177094	653.517822
2305.441993	-340.412628	-200.131500	668.655151
2305.445359	-337.198151	-196.624786	682.915771
2305.448689	-333.749878	-193.936310	696.942749
2305.452061	-329.834015	-190.195801	710.911133
2305.455293	-325.450623	-186.455307	726.106934
2305.458611	-319.956757	-183.766815	739.549438
2305.461949	-314.813568	-180.026306	752.875000
2305.465306	-308.033905	-176.110474	766.960205
2305.468627	-302.598480	-171.902390	780.753418
2305.472023	-295.059052	-167.811234	794.312744
2305.475378	-288.220917	-163.544724	807.229126
2305.478648	-280.272369	-158.635315	820.262329
2305.481939	-271.622437	-154.427246	831.834595
2305.484874	-263.790771	-149.284058	844.575684
2305.488187	-254.322632	-143.790192	856.206299
2305.491515	-244.796051	-138.705444	867.953857
2305.494852	-234.743439	-133.153122	878.473999
2305.498202	-224.632385	-127.250145	888.409668
2305.501552	-214.988892	-121.464058	898.286987
2305.504870	-203.884293	-116.145531	908.164307
2305.508250	-192.604324	-109.891876	917.164795
2305.511513	-180.272369	-103.462891	924.996460
2305.514869	-169.109299	-97.326126	933.120361
2305.518186	-156.368210	-90.371124	940.309204
2305.521554	-144.036240	-82.597893	947.673218
2305.524847	-131.645828	-75.233788	952.465820
2305.528181	-117.969604	-67.343658	957.667480
2305.531518	-104.994736	-59.745758	962.109375
2305.534872	-91.727646	-51.329628	966.317261
2305.538229	-77.466980	-43.264175	968.012329
2305.541531	-63.966106	-35.549385	970.759277
2305.544875	-50.231441	-27.133255	972.337158
2305.548176	-36.087669	-17.431328	972.220337
2305.551510	-22.060783	-7.846290	972.687866
2305.554836	-8.501461	0.686733	971.226685
2305.558177	5.642313	9.395090	969.999512
2305.561506	20.078316	18.571009	966.843384
2305.564866	35.215664	27.220922	964.213379
2305.568171	48.774986	36.338394	960.239136
2305.571535	62.568089	45.397430	954.277710
2305.574415	76.478088	53.170662	951.063110
2305.577746	89.978958	62.989487	944.575684
2305.581079	103.479843	71.405609	938.731201
2305.584445	116.980713	79.471069	928.444824
2305.587745	129.546463	87.711861	921.080688
2305.591082	142.579773	94.725304	913.249023
2305.594445	155.320862	102.147873	903.897705
2305.597750	167.594391	109.278206	895.072510
2305.601079	179.984802	116.057869	884.961426
2305.604421	191.849213	122.077736	874.908813
2305.607752	202.895386	128.331390	864.271729
2305.611082	213.590881	134.292801	853.167236
2305.614415	224.753952	139.552887	840.893555
2305.617752	234.748108	144.696075	829.438354
2305.621078	244.450027	149.371704	817.573975
2305.624412	253.976608	154.398010	804.715942
2305.627745	263.094086	158.781403	791.799438
2305.631077	271.042664	162.405029	780.578003
2305.634412	279.575684	165.561066	766.726440
2305.637766	286.881348	169.243134	754.394531
2305.641074	294.479248	173.042084	741.302734
2305.644413	301.434265	175.613678	728.386353
2305.647749	307.337250	179.003494	714.008789
2305.651103	313.298645	181.341309	701.501465
2305.654416	319.260071	183.971359	688.760376
2305.657745	324.520172	186.426071	675.551758
2305.661076	329.312683	189.056107	661.641724
2305.664405	333.696075	190.926361	648.549927
2305.667737	337.611908	193.147278	635.399780
2305.671080	341.235535	194.666855	621.255981
2305.674408	343.748688	197.004669	607.813599
2305.677739	347.255402	198.465805	595.189331
2305.681072	349.300995	199.576248	580.753418
2305.684406	351.580353	201.446503	568.421387
2305.687735	353.450623	202.615433	554.102295
2305.691068	354.794861	203.375214	541.828735
2305.694416	356.255981	205.303909	528.737061
2305.697741	356.840454	206.005264	515.995972
2305.701075	357.600250	207.115723	503.430145
2305.704397	357.834015	207.291046	490.981293
2305.707742	358.535370	207.524841	478.532440
2305.711071	357.834015	207.933945	465.908234
2305.714410	358.652252	207.817047	453.400940
2305.717730	357.132660	208.050842	440.250732
2305.721065	356.898865	207.583282	429.613678
2305.724438	355.846863	207.407944	417.866180
2305.727736	354.970184	206.823486	407.404419
2305.731069	353.158386	206.472824	396.007599
2305.734404	352.340149	205.537704	385.370544
2305.737738	350.995911	204.251877	375.902374
2305.741070	349.943909	203.141418	365.791351
2305.744404	348.658081	201.914062	355.738770
2305.747730	346.144928	201.037399	346.036804
2305.751063	345.326721	199.751617	336.334900
2305.754399	343.105804	197.998230	326.516083
2305.757731	341.527740	196.829346	318.918182
2305.761066	339.657501	195.134415	310.618958
2305.764396	338.079468	193.381073	301.969025
2305.767739	335.741669	191.627686	294.371124
2305.771057	333.403839	189.991226	286.013428
2305.774396	330.949127	188.354752	278.941559
2305.777738	328.786652	186.542953	271.226776
2305.781066	326.857971	184.906479	263.804230
2305.784395	324.695496	183.211563	257.199890
2305.787731	321.948578	181.399765	249.835785
2305.791071	318.967834	180.581512	243.348328
2305.794400	316.863831	178.594391	237.679138
2305.797768	314.467560	176.607239	231.717697
2305.801062	312.246643	175.847458	225.347153
2305.804397	309.558167	174.269424	219.561081
2305.807728	306.752777	172.223846	215.528351
2305.811081	304.531860	170.879593	210.092926
2305.814394	301.317352	169.301559	203.839279
2305.817724	298.453522	168.424896	197.936295
2305.821067	296.641724	167.314438	193.377563
2305.824400	292.901245	166.203979	187.649918
2305.827721	290.914093	164.859726	182.798950
2305.831063	287.816467	163.983047	177.480423
2305.834392	285.478668	161.411453	173.447693
2305.837725	282.731720	160.826996	168.772064
2305.841084	279.634125	159.248962	164.563995
2305.844392	277.471680	158.021622	160.005264
2305.847719	273.906494	156.385147	155.329636
2305.851054	272.211578	155.800705	151.296906
2305.854407	269.698425	153.930450	147.497955
2305.857724	267.302155	152.878418	143.582123
2305.861078	264.613678	151.475739	140.133850
2305.864399	262.860321	150.014603	136.276443
2305.867721	260.288727	148.495026	132.769730
2305.871056	258.126251	147.618347	128.561661
2305.874395	256.022217	146.215668	126.165405
2305.877727	253.801270	144.637634	123.418472
2305.881055	251.697250	143.644073	119.911758
2305.884388	249.476334	141.715363	117.340164
2305.887716	247.547623	140.078903	115.469910
2305.891054	246.086502	138.909988	112.547638
2305.894392	244.216248	137.857971	109.450027
2305.897740	242.696671	136.922852	106.644653
2305.901051	240.884857	135.403275	104.832848
2305.904388	239.131500	134.059021	102.904152
2305.907719	237.027451	133.007004	99.572762
2305.911051	234.748108	131.545868	98.812973
2305.914386	233.520752	130.610748	96.182938
2305.917720	232.760956	129.617172	94.312675
2305.921054	230.890701	128.915833	91.390419
2305.924385	228.962021	127.688484	90.279961
2305.927742	227.968430	126.519585	88.000580
2305.931088	226.390411	125.584450	86.890121
2305.934380	225.104614	125.233788	84.786095
2305.937716	223.760361	123.947990	83.792519
2305.941074	222.649902	123.597313	82.039162
2305.944377	221.013443	122.603737	80.928696
2305.947714	219.260071	122.077736	79.467567
2305.951044	218.383392	121.084160	77.012856
2305.954378	217.156036	120.441261	76.545296
2305.957715	215.578018	120.265923	75.025719
2305.961045	214.350662	119.623039	74.324371
2305.964377	213.357101	118.395683	72.278786
2305.967710	211.895966	118.571007	71.694328
2305.971065	210.727066	117.752785	70.233200
2305.974382	209.616592	117.635887	69.064293
2305.977709	208.564575	116.876091	68.129166
2305.981043	207.161896	116.642311	67.369377
2305.984382	205.934540	116.057869	66.083580
2305.987710	204.765625	115.824089	65.206894
2305.991045	204.531845	115.414955	64.037987
2305.994373	203.187607	114.479836	63.453537
2305.997710	201.843353	114.888954	62.693748
2306.001053	201.784927	113.953835	61.349503
2306.004384	199.856216	113.310921	61.057281
2306.007704	199.563995	113.018715	60.881943
2306.011044	199.622437	112.843361	59.713036
2306.014399	198.979538	112.142021	59.303917
2306.017709	198.278198	111.499123	58.135010
2306.021043	197.343079	111.206902	58.135010
2306.024368	196.758621	111.265343	57.609001
2306.027711	196.524841	110.505547	57.901222
2306.031035	195.881943	110.213326	56.615425
2306.034372	195.881943	109.862648	56.206314
2306.037707	195.706604	109.161308	55.972534
2306.041035	195.589706	109.395088	55.388077
2306.044374	195.472824	109.161308	55.563416
2306.047706	195.297485	108.635292	55.504967
2306.051060	194.888367	108.635292	54.160721
2306.054365	194.946808	108.284630	54.219170
2306.057701	194.888367	108.459969	54.920517
2306.061032	194.420807	107.992409	54.862068
2306.064366	194.829910	107.992409	54.569847
2306.067701	194.771484	107.875511	53.400940
2306.071072	194.771484	107.291061	54.569847
2306.075673	194.713028	107.875511	54.336060
2306.079010	194.771484	107.875511	54.920517
2306.082339	195.122147	107.992409	55.037407
2306.085738	195.063705	108.050850	55.563416
2306.088618	195.297485	108.459969	55.563416
2306.091959	195.297485	108.518410	55.797195
2306.095320	195.823486	109.044426	55.504967
2306.098991	195.881943	108.810646	55.154297
2306.102323	196.700165	109.336647	55.972534
2306.105256	196.583282	109.862648	56.440094
2306.108564	196.992401	109.745766	56.381645
2306.111995	197.284622	110.213326	57.082993
2306.115304	197.810638	110.447121	57.258331
2306.118617	197.869080	111.791359	57.550552
2306.121882	198.219757	111.732903	57.959671
2306.125217	198.395081	111.440681	58.018120
2306.128539	199.622437	111.908241	59.303917
2306.131901	199.213333	112.200462	58.894798
2306.135236	199.739319	112.726479	59.654594
2306.138675	200.966675	113.310921	59.654594
2306.141947	201.843353	113.194038	60.765053
2306.145223	202.427811	113.778496	61.524841
2306.148543	203.187607	114.304497	61.466393
2306.151865	204.064285	115.122734	62.985970
2306.155235	205.057861	115.064293	64.388664
2306.158567	206.168320	115.356529	64.564003
2306.161970	206.869659	116.116295	65.791351
2306.165285	207.395676	116.057869	66.901810
2306.168619	208.330795	116.876091	68.187607
2306.171869	209.791931	117.285225	68.947403
2306.175218	211.311508	117.460548	70.174751
2306.178544	212.305084	117.986565	71.577438
2306.181931	213.883102	118.220345	72.512566
2306.185231	215.052002	119.155464	73.681473
2306.188620	216.279358	119.389259	75.493279
2306.191950	217.798950	120.149040	77.246643
2306.195262	219.026291	121.201057	78.181763
2306.198538	220.253647	121.727074	80.753357
2306.201873	221.656342	122.136177	81.980713
2306.205221	223.468140	123.363533	84.552307
2306.208554	224.870819	123.947990	85.370537
2306.211890	226.448853	124.707771	86.714790
2306.214804	228.319092	125.876686	88.701927
2306.218130	229.137344	126.870262	90.279961
2306.221483	230.949142	127.746925	92.442429
2306.224805	232.644058	128.331390	94.721802
2306.228105	234.397430	129.208054	96.007599
2306.231452	235.624771	130.201630	98.345406
2306.234783	237.085907	131.604324	101.267685
2306.238115	239.423721	132.714783	101.969025
2306.241436	241.586212	133.708359	104.832848
2306.244774	243.222672	135.169495	107.170670
2306.248130	244.859146	135.987717	110.502045
2306.251464	246.846298	137.741089	113.658096
2306.254820	247.781418	139.260666	115.528351
2306.258143	249.885437	140.078903	117.983047
2306.261439	252.164810	141.072464	120.554642
2306.264781	253.801270	141.890701	124.178268
2306.268117	256.314423	143.410294	125.697830
2306.271439	258.652252	144.286957	129.789017
2306.274767	259.645813	145.631210	132.243713
2306.278107	262.568085	146.390991	135.750427
2306.281441	264.555237	147.384567	138.614258
2306.284815	266.717712	149.254822	141.828766
2306.288134	269.055511	150.306824	146.738174
2306.291465	271.744019	151.300400	149.894211
2306.294769	273.789612	152.586212	154.336060
2306.298136	276.478088	153.462891	158.135010
2306.301437	279.634125	155.274689	162.343079
2306.304768	281.913483	156.092926	166.258911
2306.308108	284.192871	157.554047	170.642319
2306.311441	287.056671	158.722961	175.902405
2306.314339	289.394501	159.424301	180.578018
2306.317681	292.141449	160.417877	185.955002
2306.321009	294.888367	162.229691	191.215088
2306.324341	297.869080	162.580353	196.884277
2306.327672	300.323761	164.216827	201.676788
2306.331004	303.304504	165.210403	207.521347
2306.334340	305.700745	166.905319	213.307434
2306.337696	308.623016	167.781998	218.859741
2306.341030	310.960846	169.243134	224.762726
2306.344345	313.766205	171.522491	230.782578
2306.347676	316.337799	172.165390	237.386902
2306.351007	319.026306	173.626526	243.874329
2306.354346	321.714783	175.496780	251.238464
2306.357673	324.403259	177.250137	258.018097
2306.361011	326.857971	178.477493	264.914673
2306.364344	329.137360	179.938629	271.869659
2306.367670	330.773804	181.867340	279.584442
2306.371005	332.994751	183.094666	287.065460
2306.374343	335.332550	184.146683	295.832245
2306.377668	337.611908	186.016937	303.605469
2306.381008	340.241943	187.536530	311.904724
2306.384357	341.819977	189.348343	319.970215
2306.387664	343.982452	189.815903	328.444763
2306.390996	345.326721	191.919922	337.854492
2306.394337	348.132080	192.855042	346.445953
2306.397664	349.885437	193.848633	356.498535
2306.401000	351.638794	194.666855	365.674469
2306.404337	352.515472	196.244888	375.201050
2306.407664	354.677979	196.595551	385.136749
2306.411003	356.080658	197.063110	395.306244
2306.414369	357.074219	197.822906	405.534180
2306.417668	358.652252	198.232025	416.288147
2306.420998	359.879578	198.816483	427.918762
2306.424333	360.639374	198.933365	438.497345
2306.427687	361.574493	199.108688	449.952637
2306.430995	362.860321	198.816483	462.810669
2306.434334	363.327881	198.699585	474.265900
2306.437668	363.094086	197.180008	487.766785
2306.441005	363.269409	197.296906	499.748077
2306.444331	363.503204	196.244888	511.437164
2306.447667	363.094086	194.900635	524.587402
2306.451001	362.392761	193.790176	536.977783
2306.454331	360.814728	192.504379	549.777344
2306.457661	359.938049	191.510818	563.044434
2306.460996	358.886017	189.991226	576.369995
2306.464326	357.132660	188.004089	590.747559
2306.467664	354.970184	186.309174	604.365356
2306.471005	351.405029	184.789581	617.106445
2306.474329	348.716553	182.802460	630.315063
2306.477660	346.144928	180.639984	644.634155
2306.480997	341.878448	178.126816	658.427246
2306.484395	337.962585	175.789001	671.519043
2306.487670	333.228516	173.626526	686.597900
2306.490994	328.728210	170.412033	698.462280
2306.494326	323.935699	167.431320	712.839844
2306.497653	317.214478	164.625946	725.873169
2306.501015	311.369934	162.521912	739.666260
2306.504326	304.648743	158.547623	752.465820
2306.507653	297.635284	155.157806	767.077148
2306.510988	289.978943	151.008179	778.473999
2306.514329	282.264160	147.150787	791.273560
2306.517656	273.848053	143.351837	802.494995
2306.520983	265.724152	139.026871	815.294556
2306.524320	257.483337	134.526581	828.093994
2306.527657	248.365860	128.857376	839.783203
2306.530984	237.787247	124.123314	851.589111
2306.534324	227.676208	118.980125	861.641724
2306.537651	217.740494	112.668037	873.564575
2306.540981	206.811218	107.115730	883.266479
2306.544324	195.998825	100.160721	892.559326
2306.547650	185.595566	93.439514	902.261230
2306.550982	173.322037	86.484505	910.677368
2306.554317	161.749847	79.237289	919.970215
2306.557661	149.885437	72.165405	926.983643
2306.560983	137.319702	63.749268	935.575195
2306.564321	124.578613	56.209816	942.179443
2306.567655	112.188187	48.261253	949.251343
2306.570983	99.505554	39.611336	955.563354
2306.574313	85.829346	31.428991	960.063721
2306.577654	71.919342	22.603743	964.154907
2306.581016	59.236702	13.720049	968.304443
2306.584316	45.385155	4.953245	970.525391
2306.587655	31.884277	-3.813559	973.038574
2306.590980	16.805378	-11.995909	975.259521
2306.594321	3.362946	-22.048510	976.136108
2306.597649	-10.605495	-30.639977	975.259521
2306.600982	-24.632378	-38.997662	974.558105
2306.604319	-37.490356	-47.472237	973.915283
2306.607651	-51.984806	-55.771477	971.635864
2306.610982	-65.076569	-63.252487	969.414917
2306.614311	-78.928116	-71.201050	965.966675
2306.617648	-92.370544	-78.798950	961.057251
2306.620983	-106.514328	-86.805962	956.556885
2306.624367	-119.313858	-93.644066	950.478638
2306.627650	-132.171829	-101.066628	945.160156
2306.630998	-145.205154	-107.320282	937.679199
2306.634312	-157.537109	-114.567505	928.386353
2306.637642	-170.102875	-120.587379	920.846924
2306.640977	-181.967285	-126.373466	911.612427
2306.644312	-192.604324	-132.685562	902.553467
2306.647641	-204.059631	-138.004089	893.786621
2306.650971	-214.872009	-143.907074	882.565186
2306.654311	-224.573944	-149.342499	873.097046
2306.657647	-234.626526	-153.784332	861.583252
2306.660975	-243.568695	-159.628876	851.472290
2306.664308	-252.978363	-163.661606	839.198730
2306.667639	-261.745178	-168.512573	826.983643
2306.670976	-269.869080	-172.662186	815.177734
2306.674311	-277.057861	-177.045593	802.494995
2306.677638	-285.123322	-181.136765	789.987671
2306.680976	-292.312103	-185.578613	776.486816
2306.684302	-298.215088	-188.968445	762.927490
2306.687642	-303.942719	-192.708954	750.361816
2306.691023	-309.436584	-195.981888	736.977783
2306.694303	-314.521332	-200.306854	724.178223
2306.697645	-319.781433	-203.287552	710.151367
2306.700975	-323.288116	-205.976044	696.358276
2306.704307	-327.963745	-208.372299	683.909424
2306.707643	-331.353607	-210.417892	670.233154
2306.711009	-334.626526	-213.398605	656.615479
2306.714301	-337.548798	-215.151962	643.582153
2306.717641	-340.763306	-216.846878	629.672119
2306.720969	-342.341339	-218.775574	616.171265
2306.724299	-344.679138	-220.528946	602.845703
2306.727631	-346.374054	-220.762711	589.870850
2306.730969	-347.426086	-222.106964	577.129761
2306.734301	-348.478088	-223.042084	563.570435
2306.737630	-349.530090	-223.801880	550.420288
2306.740969	-349.763885	-223.626541	538.672729
2306.744298	-350.348328	-224.210999	525.522461
2306.747635	-350.289886	-223.801880	513.658081
2306.750969	-350.582123	-223.626541	501.443024
2306.754325	-350.406799	-222.808319	489.403290
2306.757640	-350.465240	-222.223862	477.480408
2306.760976	-348.945648	-221.464066	466.317352
2306.764301	-348.594971	-220.645828	453.459412
2306.767627	-347.952087	-219.418472	442.588562
2306.770962	-346.549377	-218.249557	430.957947
2306.774303	-346.140259	-216.729996	420.087097
2306.777629	-344.620697	-216.145523	409.859131
2306.782258	-341.698425	-212.521927	388.468170
2306.785644	-340.295746	-211.060791	379.526001
2306.788986	-338.542358	-209.774979	370.174774
2306.791918	-335.503235	-208.664520	360.881958
2306.795245	-333.808289	-206.385162	351.764465
2306.798581	-332.522522	-205.040924	342.822327
2306.802230	-330.301575	-203.287552	333.237274
2306.805178	-327.203979	-202.001755	325.347168
2306.808503	-325.509064	-200.365280	317.047943
2306.811832	-323.288116	-198.670380	308.690247
2306.815217	-320.190521	-196.449448	301.443024
2306.818563	-317.969604	-195.280548	293.085327
2306.821921	-315.924011	-193.760971	286.247223
2306.825141	-312.943329	-192.650497	279.584442
2306.828483	-310.663940	-190.897141	272.103455
2306.831805	-307.507904	-189.377563	264.680878
2306.835163	-305.345428	-187.565765	258.193451
2306.838504	-302.364716	-186.338409	251.413788
2306.841923	-299.442444	-185.403275	244.692596
2306.845221	-296.870850	-184.292816	239.666260
2306.848560	-293.890106	-182.305679	233.763275
2306.851808	-290.967865	-180.260086	227.860306
2306.855127	-288.688507	-178.974289	221.957321
2306.858472	-285.824646	-177.863831	217.398590
2306.861833	-283.311523	-176.168915	212.722961
2306.865184	-280.681458	-174.707779	207.287552
2306.868550	-278.168335	-172.954422	202.261261
