time (s)	magX	magY	magZ
672.288189	466.308594	205.771469	609.099365
672.291516	465.607269	205.128571	619.561157
672.294864	465.198120	204.602570	630.665649
672.298217	465.373474	204.427246	643.523682
672.301543	463.561676	204.076553	655.212769
672.304876	463.444763	203.433655	666.960205
672.308250	461.165375	202.147858	679.233765
672.311518	460.873169	201.504959	690.922852
672.314851	458.827576	200.511383	702.494995
672.318193	457.015747	199.517822	714.710083
672.321515	454.794830	198.173569	727.918823
672.324857	452.807709	196.420212	740.659912
672.328184	450.645264	195.543518	752.816528
672.331545	448.307434	193.497940	765.323730
672.334873	444.917572	191.101685	778.590942
672.338209	442.638214	190.108124	791.507324
672.341548	439.248383	187.361191	805.358887
672.344925	434.981873	184.380478	816.814209
672.348172	431.241364	182.334900	829.905884
672.351525	427.384003	179.003494	842.413208
672.354873	423.643494	176.957916	855.037476
672.358176	419.902954	173.568085	868.655151
672.361521	415.344238	170.236694	881.922241
672.364846	409.265930	167.022202	894.254272
672.368184	404.005829	162.872589	906.118652
672.371508	398.219757	159.307419	919.035156
672.374896	392.492096	155.333130	931.133179
672.378203	386.413788	151.534180	945.802979
672.381576	379.634125	147.443008	958.427246
672.384849	372.737579	142.884277	970.057861
672.388173	366.016357	138.676208	982.506714
672.391510	357.775574	134.175919	995.364746
672.394847	349.768555	129.324951	1007.346069
672.398190	342.053772	124.532448	1017.866211
672.401502	333.812988	119.915245	1030.490356
672.404842	324.870819	114.888954	1041.828857
672.408193	315.636475	109.687325	1052.641235
672.411529	305.934540	104.544128	1064.096436
672.414870	296.349487	98.933380	1075.434814
672.418228	285.537109	93.556396	1085.370605
672.421501	275.075409	88.120979	1095.130859
672.424847	264.730591	82.159561	1104.540649
672.428179	254.970200	76.490356	1115.060791
672.431503	242.755096	71.054939	1123.593872
672.434869	231.299835	64.158394	1131.659302
672.438176	219.844528	58.547630	1141.302734
672.441511	208.097015	52.819992	1148.491577
672.444861	195.765045	45.748100	1156.147949
672.448200	182.731735	39.026886	1162.693726
672.451529	170.750443	32.247223	1169.765625
672.454890	157.775574	26.110460	1175.843994
672.458169	145.268265	19.097017	1181.279297
672.461497	131.708954	11.557568	1186.597900
672.464833	118.792526	4.836353	1191.390381
672.468172	105.817642	-1.475746	1195.656982
672.471504	92.550552	-8.547633	1199.748169
672.474831	79.751022	-16.379311	1204.073120
672.478197	65.957916	-23.918760	1205.475830
672.481525	52.807713	-31.750439	1207.170654
672.484859	40.125072	-39.172997	1210.618896
672.488190	26.857979	-46.420223	1210.385254
672.491508	12.655757	-54.251900	1211.729370
672.494831	-0.377558	-61.616013	1211.495728
672.498169	-12.884865	-68.629456	1211.729370
672.501506	-26.385738	-75.935127	1210.852783
672.504834	-39.302162	-83.357681	1208.515015
672.508168	-51.634136	-91.014023	1207.988892
672.511497	-64.492111	-98.261253	1206.177124
672.514871	-77.233200	-104.982468	1202.845703
672.518183	-89.974274	-112.171249	1198.637695
672.521532	-101.429581	-119.009346	1196.066040
672.524855	-113.878448	-126.315018	1192.500977
672.528166	-125.976624	-132.451782	1187.942261
672.531494	-138.367050	-138.997665	1181.630127
672.534832	-149.822327	-146.186447	1176.253052
672.538160	-161.745178	-152.323212	1171.986572
672.541492	-172.791351	-158.459976	1164.388794
672.544833	-184.071304	-163.895386	1158.018188
672.548167	-195.292801	-169.915268	1151.180054
672.551499	-205.637650	-175.818237	1143.874390
672.554853	-216.976044	-181.545883	1135.925903
672.558233	-227.145523	-186.630630	1127.860352
672.561590	-237.607239	-191.890701	1118.450562
672.564834	-247.133850	-196.683228	1110.151367
672.568168	-257.186432	-201.592636	1101.676880
672.571496	-267.355957	-206.151382	1091.624268
672.574830	-275.362946	-210.943893	1081.337769
672.578170	-285.473999	-215.619537	1072.278809
672.581507	-294.182343	-219.710693	1062.343140
672.584815	-303.007599	-223.684982	1051.004639
672.588184	-311.014618	-227.308578	1040.542969
672.591517	-318.261841	-231.399780	1030.315063
672.594846	-325.625946	-235.081818	1018.742798
672.598199	-332.931610	-238.354752	1007.229126
672.601515	-340.938629	-241.160156	996.241455
672.604821	-346.666290	-244.374634	984.610840
672.608160	-352.803040	-248.115143	973.506104
672.611496	-358.998260	-250.160721	962.343018
672.614822	-364.959656	-253.550552	950.829346
672.618176	-369.985992	-256.472809	938.848022
672.621484	-375.187622	-258.869080	927.100464
672.624844	-379.921661	-261.323792	914.534790
672.628176	-383.136169	-263.427826	903.897705
672.631534	-387.928711	-265.298065	890.981323
672.634812	-392.195221	-267.986542	880.928711
672.638146	-395.760406	-269.856812	868.713623
672.641493	-399.150238	-271.960846	857.842773
672.644835	-402.715393	-272.720612	846.212158
672.648154	-405.345398	-274.473999	834.640015
672.651489	-409.144348	-276.519562	824.061401
672.654824	-410.839264	-277.980682	813.482666
672.658169	-413.410858	-278.857391	801.092407
672.661533	-415.281097	-280.084747	790.338379
672.664847	-417.735809	-281.370544	779.233765
672.668222	-419.430725	-282.130310	767.719971
672.671481	-420.716522	-282.890106	758.135010
672.674849	-422.528351	-283.299225	746.679687
672.678144	-424.515472	-284.117462	735.516602
672.681488	-424.866150	-284.292816	724.938110
672.684819	-426.093536	-284.351227	715.119263
672.688143	-427.087067	-284.409698	704.423706
672.691482	-428.080658	-284.059021	695.540039
672.694841	-428.489777	-283.942139	684.143188
672.698173	-429.424896	-284.585022	674.382812
672.701506	-430.593811	-283.942139	665.206909
672.704870	-430.652222	-282.890106	655.037354
672.708151	-431.236694	-282.890106	645.627686
672.711472	-430.476898	-283.357666	636.919312
672.714813	-431.236694	-282.948547	627.100464
672.718180	-431.528961	-281.721191	617.398560
672.721472	-430.301575	-280.727631	608.690308
672.724809	-430.476898	-279.734070	598.579224
672.728141	-430.710693	-279.675629	590.396851
672.731510	-430.184692	-278.623596	581.220947
672.734834	-429.892456	-278.506714	572.629395
672.738173	-428.957306	-277.337799	563.804199
672.741476	-428.314453	-277.104034	557.024536
672.744808	-428.197540	-276.753357	548.842163
672.748175	-427.379333	-275.467560	540.133911
672.751482	-425.742859	-275.409119	532.945068
672.754808	-425.684418	-273.714203	526.282349
672.758136	-424.047943	-273.305084	520.320801
672.761490	-423.638824	-272.662170	512.197021
672.764830	-422.586761	-271.142609	504.482147
672.768171	-421.476318	-271.084167	497.877838
672.771498	-420.015198	-269.681458	491.565765
672.774857	-418.612518	-269.097015	485.604340
672.778142	-418.144928	-268.687897	479.175323
672.781479	-415.339569	-267.460541	473.623047
672.784807	-415.281097	-267.226776	467.486298
672.788140	-413.586182	-265.940979	461.583282
672.791498	-412.475739	-265.882538	454.628265
672.794804	-411.482178	-265.356506	448.023987
672.798133	-409.611938	-263.486267	443.640564
672.801493	-409.144348	-263.544708	437.270020
672.804830	-408.326141	-262.434235	432.711273
672.808205	-405.345398	-261.849792	427.860321
672.811468	-404.468719	-260.388641	423.827606
672.814805	-404.527191	-259.570435	418.976654
672.818150	-402.656921	-259.453522	413.541229
672.821466	-400.962006	-258.167725	408.573334
672.824807	-399.208649	-258.167725	404.423706
672.828132	-398.448853	-257.115723	400.507874
672.831472	-397.396851	-255.771469	395.364716
672.834855	-397.104645	-255.128571	391.741089
672.838168	-394.766815	-254.894806	387.299255
672.841490	-393.071899	-254.193451	382.623627
672.844908	-392.604340	-252.264771	378.590881
672.848156	-390.967834	-251.738770	374.791931
672.851463	-390.324982	-250.862076	371.869659
672.854799	-389.331390	-249.576279	368.362946
672.858132	-388.162476	-249.167160	364.739349
672.861460	-386.584473	-248.465820	361.875519
672.864797	-386.116882	-247.121582	357.901245
672.868138	-384.655762	-246.361786	356.089417
672.871460	-383.837524	-245.894226	352.173584
672.874369	-382.493317	-245.017532	349.426636
672.877724	-381.382812	-244.433090	345.393921
672.881038	-380.973724	-243.848633	343.114563
672.884367	-379.980133	-243.381073	340.893616
672.887727	-379.103455	-242.562851	338.614258
672.891042	-377.466980	-242.036819	335.516663
672.894369	-376.940979	-240.926361	333.704865
672.897700	-375.888977	-240.809464	330.490356
672.901035	-375.713623	-239.991241	328.678558
672.904368	-374.603149	-239.289902	326.866730
672.907697	-373.726501	-239.815903	325.639374
672.911033	-372.557556	-239.289902	323.301575
672.914372	-372.616028	-238.354752	321.840454
672.917696	-371.330200	-238.354752	320.729980
672.921044	-370.453552	-238.354752	319.677979
672.924370	-370.219757	-238.296326	318.099945
672.927702	-369.869080	-238.530121	317.223267
672.931033	-368.933960	-237.828751	315.352997
672.934370	-368.641724	-237.828751	314.710114
672.937695	-367.063721	-237.419632	313.541199
672.941034	-367.180603	-237.536530	312.489197
672.944362	-365.953247	-237.127426	311.554077
672.947692	-364.550568	-236.835190	310.385162
672.951024	-366.070129	-236.893631	309.274689
672.954359	-364.258331	-236.776733	309.099365
672.957721	-364.492096	-237.244293	308.164246
672.961041	-363.673889	-236.835190	307.813568
672.964377	-363.849213	-236.484512	307.404449
672.967699	-363.966095	-236.426071	306.352417
672.971029	-363.556976	-236.893631	306.352417
672.974360	-363.498535	-236.601410	305.884857
672.977693	-363.264740	-236.776733	305.592621
672.981032	-363.498535	-236.426071	305.417297
672.984363	-363.323212	-236.484512	305.592621
672.987699	-362.855652	-236.367630	305.008209
672.991021	-363.089417	-236.016937	305.943329
672.994360	-363.615448	-236.601410	306.060181
672.997696	-363.264740	-236.075409	306.001770
673.001056	-363.732300	-235.841614	305.534180
673.004354	-364.492096	-236.075409	306.235535
673.007694	-363.206329	-236.367630	306.177094
673.011022	-363.673889	-237.010529	307.462891
673.014350	-364.083008	-236.776733	307.988892
673.017687	-364.083008	-237.478088	308.807129
673.021020	-364.024536	-237.770325	308.924042
673.024351	-365.836365	-237.770325	310.268250
673.027683	-365.953247	-238.530121	310.911163
673.031029	-365.485687	-238.939224	311.612518
673.034387	-366.713043	-238.880783	312.313843
673.037685	-366.829926	-238.646988	314.300995
673.041025	-366.420807	-239.874344	315.177673
673.044392	-367.472809	-240.867935	316.405029
673.047683	-368.232605	-241.160156	319.268829
673.051033	-367.940369	-241.861496	319.970215
673.054354	-368.758636	-242.855057	322.015778
673.057687	-368.933960	-243.731735	323.710693
673.061022	-369.927521	-243.790176	325.873169
673.064359	-370.395081	-244.666870	326.866730
673.067686	-370.862640	-245.718887	329.613678
673.071013	-372.089996	-246.361786	330.431915
673.074351	-372.323792	-247.238480	333.120392
673.077680	-373.200470	-248.465820	335.750427
673.081024	-373.784912	-249.634720	338.672699
673.084353	-374.310913	-249.810059	341.302765
673.087680	-374.778473	-250.452957	344.108124
673.091020	-375.713623	-251.972534	346.562836
673.094353	-377.057861	-252.381668	349.251312
673.097679	-377.525421	-253.725891	351.881348
673.101012	-379.045013	-254.076584	355.212738
673.104345	-379.512543	-255.011703	358.310333
673.107699	-380.798401	-256.706604	361.641754
673.111020	-381.850372	-256.881958	365.089996
673.114349	-382.727051	-257.933960	367.427826
673.117684	-383.779083	-258.576874	370.759186
673.121009	-385.064880	-259.161285	374.499695
673.124347	-385.590881	-259.804199	377.889526
673.127677	-386.584473	-260.856232	381.162506
673.131008	-387.578003	-261.908234	384.844543
673.134340	-389.331390	-262.726471	388.468170
673.137687	-390.208069	-263.544708	392.442413
673.141008	-391.552307	-264.538269	396.475159
673.144347	-393.364105	-265.707184	401.559937
673.147670	-393.481018	-266.876099	404.949768
673.151009	-394.416138	-267.577423	409.625397
673.154337	-395.818817	-268.804779	413.073639
673.157678	-396.987732	-269.623047	417.924591
673.161009	-398.682648	-270.850372	423.476929
673.164338	-400.260681	-271.376404	428.386292
673.167680	-400.436035	-273.188171	432.886597
673.171012	-401.078888	-274.415527	438.789612
673.174366	-402.364685	-275.292236	444.283478
673.177697	-403.533600	-276.636475	450.069580
673.181018	-404.351868	-277.922272	456.498535
673.184342	-405.170044	-279.441833	462.810669
673.187676	-406.572784	-281.019867	468.888947
673.191005	-407.566345	-282.480988	475.610168
673.194336	-408.267700	-283.942139	480.928711
673.197674	-408.793701	-285.111023	487.766785
673.201004	-409.962616	-286.221497	494.721771
673.204343	-410.313263	-287.565735	502.027435
673.207669	-411.715942	-288.734650	508.397980
673.210998	-411.423737	-290.371124	515.236084
673.214335	-412.534180	-291.306244	522.892456
673.217702	-414.229095	-292.650482	529.496704
673.221005	-414.521301	-294.111633	537.153198
673.224337	-415.222687	-295.455872	544.458862
673.227664	-415.865570	-297.676788	552.699585
673.231003	-415.924011	-297.267670	560.239014
673.234338	-416.859161	-299.488617	567.661621
673.237665	-416.917603	-300.189941	576.428467
673.241001	-417.209808	-301.300385	584.610718
673.244333	-417.151367	-301.943298	592.150269
673.247700	-417.969604	-303.287537	601.501465
673.251002	-417.794281	-304.398010	610.794312
673.254336	-417.268280	-305.040894	618.099976
673.257663	-418.320282	-305.566925	627.100464
673.261026	-417.852722	-306.443573	636.159546
673.264326	-417.326721	-306.911133	645.452393
673.267670	-417.735809	-307.904724	653.634766
673.270995	-417.151367	-307.904724	662.985962
673.274327	-416.450012	-309.716522	673.564575
673.277664	-415.690247	-309.248962	682.272949
673.280995	-415.631805	-309.716522	691.799561
673.284330	-414.404449	-309.950317	700.274170
673.287659	-413.235535	-310.242554	709.566895
673.290997	-413.293976	-310.651642	720.028687
673.294332	-410.956177	-310.826965	729.613647
673.297656	-409.378143	-311.177673	739.666260
673.300996	-408.618347	-310.768555	750.537109
673.304349	-406.163635	-311.352997	760.998779
673.307660	-404.760986	-310.768555	771.811279
673.310993	-402.540009	-311.294556	781.805420
673.314327	-400.436035	-311.703674	792.734619
673.317718	-398.857971	-310.768555	803.313354
673.320995	-395.059021	-310.534790	814.651611
673.324327	-392.604340	-310.300995	825.990112
673.327662	-390.208069	-310.125641	835.867310
673.330990	-385.590881	-309.541199	848.199341
673.334324	-382.843964	-308.430725	859.771484
673.337658	-378.986542	-307.729401	869.999512
673.340993	-375.246033	-306.677368	881.104004
673.344320	-370.511993	-305.859161	892.793091
673.347687	-366.479248	-305.157806	903.137939
673.350988	-361.569855	-303.755096	914.943970
673.354320	-357.011108	-302.761536	926.223755
673.357651	-351.984802	-301.125061	939.315674
673.360986	-346.081818	-299.021027	950.770874
673.364326	-341.464630	-297.326111	961.057251
673.367655	-334.684998	-295.514313	971.869751
673.370990	-328.782013	-293.644043	982.915771
673.374321	-322.937469	-291.656921	993.786621
673.377650	-316.742249	-289.026855	1004.189941
673.380986	-310.488617	-285.987732	1013.716553
673.384316	-303.241364	-283.182343	1025.288696
673.387665	-295.818817	-280.318512	1034.990723
673.391005	-289.448273	-277.162476	1046.329102
673.394318	-281.791962	-273.889526	1055.972534
673.397653	-274.427826	-270.149048	1066.200562
673.400988	-266.713043	-267.635895	1074.967285
673.404318	-258.647583	-263.603149	1084.669189
673.407651	-250.173004	-259.570435	1092.500977
673.410980	-242.049103	-255.479263	1101.793701
673.414317	-233.340744	-251.446533	1110.151367
673.417653	-225.216843	-247.180008	1117.223389
673.420981	-215.982468	-241.744598	1126.866821
673.424315	-206.748108	-238.120987	1134.230835
673.427651	-197.805969	-233.386917	1142.588623
673.430987	-187.811798	-228.711273	1149.017578
673.434330	-177.583878	-223.743439	1155.388184
673.437648	-168.057281	-218.658691	1162.167847
673.440980	-157.011108	-213.690826	1168.538208
673.444313	-146.607834	-209.248993	1173.097046
673.447640	-136.029236	-203.755112	1178.532471
673.450980	-125.567505	-198.319702	1183.383423
673.454313	-113.878448	-192.533615	1187.649902
673.457645	-102.949158	-187.741089	1191.156616
673.460994	-90.734070	-181.662781	1197.001221
673.464308	-79.687897	-175.642914	1200.215698
673.467648	-68.349503	-170.382828	1202.904175
673.470977	-56.835766	-164.655182	1205.767944
673.474312	-44.094685	-158.576859	1207.463013
673.477653	-32.288719	-152.440094	1210.209839
673.480978	-19.956753	-146.946228	1210.969604
673.484308	-8.092342	-140.458801	1211.729370
673.487644	4.239626	-133.445358	1214.008789
673.490978	16.454704	-127.308594	1214.067261
673.494306	30.364700	-121.171829	1212.956787
673.497636	41.995323	-115.619514	1211.554077
673.500972	54.210403	-109.132080	1210.209839
673.504305	66.600815	-102.410873	1208.456543
673.507657	78.231445	-96.566330	1207.287598
673.510974	90.504959	-90.078896	1206.177124
673.514307	102.194046	-83.533020	1202.611938
673.517641	114.000000	-76.285797	1200.098755
673.520984	125.805969	-69.798363	1196.475220
673.524300	137.904144	-63.544708	1192.091797
673.527697	149.359451	-57.115723	1186.773315
673.530971	160.522491	-50.394505	1183.383423
673.534307	171.568665	-44.783752	1177.480469
673.537637	182.497955	-38.120979	1171.986572
673.540973	192.959671	-31.458212	1167.252563
673.544304	203.947403	-25.204559	1162.869141
673.547631	213.883102	-17.840445	1156.089478
673.550970	223.818832	-11.937464	1149.718872
673.554301	234.806534	-5.274693	1143.056152
673.557634	244.157791	0.394506	1135.575195
673.560965	254.151962	6.531269	1128.444824
673.564349	263.561676	12.142023	1120.320923
673.567640	272.270020	17.577440	1112.197021
673.570969	281.504364	23.772650	1105.358887
673.574296	290.680298	29.383398	1095.949097
673.577629	299.330200	35.052597	1086.597900
673.580966	307.980133	40.604912	1078.006470
673.584300	316.220917	45.806549	1068.655151
673.587636	324.403259	50.832848	1058.894775
673.590964	333.345398	56.092926	1049.952637
673.594299	340.417297	60.534775	1039.023437
673.597658	348.658081	65.677971	1029.204590
673.600972	355.437744	70.353600	1019.327393
673.604304	362.275848	74.678551	1008.690186
673.607659	369.581543	79.061951	998.696045
673.610960	376.887207	83.620697	988.351318
673.614303	383.433075	87.594978	978.064819
673.617626	390.095856	91.569260	967.018799
673.620964	395.998840	95.426651	957.141479
673.624295	401.843353	99.050262	945.802979
673.627631	408.272369	103.199883	934.581543
673.630964	413.357086	106.648163	922.717163
673.634297	417.740479	110.213326	911.612427
673.637627	422.825256	114.012276	900.215698
673.640955	427.793121	116.759209	889.695557
673.644297	432.293427	120.032143	878.824707
673.647632	436.442993	123.188194	866.784912
673.650981	439.248383	126.052010	857.725830
673.654288	444.274719	129.266510	847.498047
673.657629	447.781433	131.662766	834.873779
673.660955	450.645264	134.468155	825.464111
673.664291	453.041504	137.331955	814.417847
673.667625	456.548218	140.195786	801.559937
673.670956	459.353577	142.650497	793.202271
673.674289	461.457642	145.046753	784.026245
673.677620	463.503204	147.209229	772.980103
673.680962	465.081207	149.663940	762.927490
673.684285	467.126801	152.177078	752.115112
673.687621	468.763306	154.339554	742.646973
673.690954	470.341309	156.385147	732.360596
673.694328	471.977814	158.664520	722.658691
673.697618	473.380463	160.476318	713.658081
673.700961	473.789612	162.229691	704.189941
673.704287	475.250732	163.749268	694.780273
673.707619	476.419647	165.210403	686.247192
673.710944	477.354767	166.320862	677.597290
673.714286	477.588562	168.015778	668.246094
673.717619	477.471649	169.126236	659.011719
673.720952	477.939209	170.412033	650.011108
673.724304	478.757416	171.522491	640.426025
673.727621	478.582092	172.925186	632.886597
673.730952	478.932770	173.509644	623.418457
673.734292	478.874359	174.503204	613.950317
673.737635	478.991211	175.613678	606.001709
673.740957	478.932770	176.022781	598.637573
673.744288	479.049683	176.548798	590.455322
673.747619	478.523682	177.483932	580.987183
