time (s)	magX	magY	magZ
1791.759154	255.846863	135.753937	122.483353
1791.762476	253.099945	134.117462	118.509064
1791.765801	250.762131	133.182343	115.528351
1791.769135	248.015182	131.370544	112.606079
1791.772475	245.852707	130.201630	109.859146
1791.775805	243.573349	128.974274	106.527771
1791.779141	241.060181	127.980721	103.780830
1791.782467	239.014603	126.753365	101.384567
1791.785808	236.267685	125.350670	99.748100
1791.789149	234.046753	124.590874	95.890709
1791.792470	231.533600	122.954414	94.078896
1791.795802	229.663345	122.545296	92.091759
1791.799134	227.442429	121.259499	90.046181
1791.802468	225.747513	120.149040	88.409706
1791.805798	223.351257	119.213905	85.779663
1791.809141	221.481003	118.395683	83.734070
1791.812464	220.253647	117.752785	82.506729
1791.815798	217.565170	116.291649	81.337822
1791.819130	216.337814	115.882515	78.707779
1791.822470	214.116882	114.713615	77.129753
1791.825793	212.129745	114.070717	75.317940
1791.829133	210.551712	112.551140	73.038574
1791.832485	208.798355	111.616020	71.986557
1791.835799	206.577438	110.973106	70.350090
1791.839133	205.700760	110.154884	67.836937
1791.842464	204.122742	109.278206	67.310928
1791.845796	201.960251	107.933952	64.564003
1791.849133	200.265335	107.057281	63.570427
1791.852459	198.453537	106.297485	61.524841
1791.855798	197.226181	105.596138	60.472824
1791.859130	196.174164	104.661018	59.187019
1791.862461	194.245468	103.550560	57.316772
1791.865796	192.784332	103.492111	56.556984
1791.869124	191.556976	103.024544	55.037407
1791.872453	190.563400	101.504974	54.336060
1791.875795	188.926941	101.388077	53.400940
1791.879127	187.232025	100.160721	52.173584
1791.882464	186.822906	99.284042	51.647575
1791.885795	185.244888	98.582703	50.420219
1791.889127	184.718872	97.939804	49.660431
1791.892458	183.783752	98.173584	48.725304
1791.895787	182.381058	97.589127	48.666862
1791.899124	182.264175	97.180016	47.731735
1791.902461	181.036819	96.595558	47.264175
1791.905782	180.277023	96.186440	46.796616
1791.909118	179.809464	96.011108	45.919930
1791.912455	179.166565	95.368210	46.270599
1791.915792	178.523666	95.426651	44.926361
1791.919129	177.822327	95.543541	44.867912
1791.922456	177.062531	94.900650	43.874344
1791.925785	177.062531	94.666870	43.932785
1791.929115	175.367615	94.257744	43.757454
1791.932458	175.367615	94.783752	43.173004
1791.935789	175.601395	94.374641	42.939217
1791.939123	174.958496	93.673294	43.348335
1791.942452	174.607819	94.316193	42.471657
1791.945781	174.023376	93.965523	42.763878
1791.950466	173.789597	93.381065	42.471657
1791.953807	173.438919	93.848625	42.296318
1791.957142	172.854477	93.439514	42.062538
1791.960505	172.854477	93.497963	41.828758
1791.963807	172.211563	93.322617	41.770309
1791.967133	172.270020	92.913498	41.302746
1791.970455	172.153122	92.855049	41.302746
1791.973389	171.860901	93.439514	40.893631
1791.977079	172.211563	92.621269	40.776741
1791.980034	171.510223	92.971947	41.244301
1791.983827	171.451782	92.504387	40.309177
1791.986731	171.334885	92.504387	40.133839
1791.990084	171.627121	92.504387	39.549385
1791.993366	171.159546	92.329056	39.490944
1791.997052	171.685562	92.212158	39.490944
1792.000002	171.159546	92.387489	39.490944
1792.003746	170.750443	92.036827	39.374050
1792.006660	171.218002	92.212158	39.257160
1792.010056	171.451782	92.796616	39.666275
1792.013358	171.685562	92.796616	40.250729
1792.016728	171.919342	92.387489	40.426067
1792.019952	172.445343	92.913498	40.659847
1792.023313	172.737579	92.562836	41.185852
1792.026625	173.263580	93.556396	42.004097
1792.029987	174.198715	94.023956	41.653423
1792.033313	173.906479	93.497963	42.588547
1792.036701	174.783157	94.023956	42.997665
1792.040041	175.484497	94.666870	42.822327
1792.043339	175.718277	95.075981	43.406784
1792.046625	177.179413	95.426651	43.348335
1792.049965	177.296310	95.543541	44.751022
1792.053331	177.880768	96.478668	45.569260
1792.056643	178.874344	96.595558	46.329048
1792.059984	179.341904	97.296898	46.913506
1792.063386	180.393921	97.939804	48.082413
1792.066714	181.270599	98.407372	48.199303
1792.069957	182.205719	98.465820	49.017532
1792.073287	182.322617	99.284042	49.894211
1792.076614	183.666855	99.926941	51.180016
1792.079983	184.543533	101.271194	51.822914
1792.083318	186.180008	101.446526	52.816483
1792.086761	186.764465	102.381653	53.517830
1792.090031	187.991806	103.024544	53.693161
1792.093389	188.459366	104.076569	55.972534
1792.096621	189.803619	103.959671	56.381645
1792.099949	191.323196	104.135002	57.141441
1792.103285	192.959671	105.771477	58.544128
1792.106647	193.368774	105.946823	59.245468
1792.109996	194.362350	106.706596	60.180595
1792.113384	195.765045	107.992409	61.174171
1792.116704	198.044418	108.693748	62.050850
1792.119986	199.213333	108.576866	62.985970
1792.123303	200.265335	109.628868	63.687317
1792.126619	201.200455	110.154884	64.797783
1792.130017	202.720047	111.323784	66.843369
1792.133306	204.707184	111.732903	67.953827
1792.136715	205.642303	112.434242	69.648750
1792.140032	206.928116	113.720055	70.876099
1792.143358	208.681458	114.713615	72.395676
1792.146620	210.610168	115.473412	73.213913
1792.149950	212.421967	116.291649	75.785507
1792.153278	213.824661	117.226768	77.246643
1792.156635	216.279358	118.045006	78.532440
1792.159969	218.149612	119.097023	81.454704
1792.163424	219.610748	120.675041	82.682060
1792.166211	221.890121	121.317940	84.786095
1792.169546	223.468140	122.369957	87.416138
1792.172903	225.630615	123.538872	89.870834
1792.176608	227.676208	125.058434	91.916428
1792.179529	230.306244	126.636467	94.604904
1792.182857	232.585617	127.863823	97.234947
1792.186185	235.098770	128.974274	100.566338
1792.189517	237.436584	130.786087	102.962601
1792.192857	239.891296	132.130325	106.177094
1792.196208	242.229111	133.942139	109.917587
1792.199540	245.092911	135.227921	112.898300
1792.202881	247.489197	136.689072	116.697250
1792.206253	250.119232	138.793091	119.794861
1792.209532	252.223251	139.728226	123.009338
1792.212855	255.203964	141.598465	127.626541
1792.216216	257.834015	143.001160	132.009933
1792.219516	260.405609	144.696075	135.399765
1792.222853	262.977203	146.157211	139.490936
1792.226189	265.665710	147.676788	143.815903
1792.229509	267.828186	149.488602	147.205734
1792.232863	271.334900	150.306824	152.465805
1792.236207	273.848053	152.235535	156.147873
1792.239545	276.887207	153.579773	160.531265
1792.242911	279.692566	155.800705	165.090012
1792.246183	282.965515	157.320267	169.531860
1792.249513	286.530701	159.073639	174.675049
1792.252847	288.576263	160.826996	179.642883
1792.256185	291.615417	162.112793	184.318512
1792.259546	294.420776	164.742844	189.286377
1792.262849	297.985962	165.677963	194.780258
1792.266186	300.557556	167.665100	199.981873
1792.269534	303.421387	169.184677	206.469315
1792.272866	306.343658	171.054932	212.839859
1792.276221	309.207489	172.632950	217.866150
1792.279524	312.071289	174.210983	224.587372
1792.282864	315.227356	175.964340	230.782578
1792.286173	318.324951	177.659256	238.029816
1792.289515	322.182343	179.412613	245.393921
1792.292837	324.695496	181.282883	252.641144
1792.296175	328.085327	183.620682	259.596161
1792.299508	330.715363	184.964920	268.830505
1792.302868	334.046753	186.718292	276.486847
1792.306197	336.326111	188.939209	284.727631
1792.309534	339.891296	190.984787	293.903564
1792.312868	342.112213	192.095261	303.079498
1792.316189	346.086487	194.140839	312.781403
1792.319503	348.365845	195.894211	322.658691
1792.322414	350.879028	197.822906	332.769714
1792.325744	352.632385	199.167160	342.939209
1792.329078	355.788422	201.563400	354.102264
1792.332415	358.184692	202.849197	364.973114
1792.335743	359.996490	204.251877	376.720642
1792.339079	362.509644	205.362366	388.117462
1792.342419	363.912323	206.823486	400.040344
1792.345782	365.782562	208.343079	411.670959
1792.349078	367.185272	209.628860	424.762726
1792.352407	368.120392	210.388657	438.088287
1792.355739	369.464630	211.089996	449.718842
1792.359072	370.458191	211.616013	464.914642
1792.362414	371.393311	212.434235	476.837524
1792.365741	372.153107	212.901810	490.922821
1792.369081	371.919342	213.603165	503.605499
1792.372403	372.445343	213.603165	518.099976
1792.375741	371.685547	213.427811	531.893066
1792.379138	370.984222	213.603165	545.978394
1792.382412	370.867310	213.310928	559.713013
1792.385747	369.406189	212.668030	573.564575
1792.389110	367.711273	211.674454	588.585083
1792.392405	365.957916	210.856216	603.079468
1792.395738	363.444763	209.979538	617.573975
1792.399079	361.399170	208.459976	632.652832
1792.402406	358.769135	206.589691	645.919922
1792.405735	355.788422	205.245468	662.167725
1792.409078	351.521912	203.024551	675.727051
1792.412408	347.489197	201.388077	691.448853
1792.415736	342.988892	198.465805	706.410889
1792.419077	338.079468	196.186447	721.080688
1792.422407	332.877838	192.679718	735.867310
1792.425738	326.799530	189.757446	750.186401
1792.429069	320.370544	186.835159	766.200439
1792.432423	312.538849	183.328461	782.448242
1792.435737	305.350098	179.120392	796.825806
1792.439073	297.401520	175.321442	811.729370
1792.442405	288.985382	171.054932	826.223755
1792.445740	279.575684	166.203979	841.068970
1792.449068	270.107544	161.119217	855.504883
1792.452401	259.762726	155.859146	869.707153
1792.455790	249.184113	150.482162	882.915771
1792.459064	237.845703	144.170059	896.592041
1792.462398	225.396851	137.974869	909.625366
1792.465730	213.006424	131.896545	921.957397
1792.469064	200.031555	125.292229	934.289307
1792.472399	186.647568	117.869667	945.335449
1792.475763	173.029800	110.680901	956.323242
1792.479062	158.652252	102.790764	966.843384
1792.482399	144.216248	94.549973	974.558105
1792.485734	129.780243	86.542953	983.850952
1792.489062	114.350677	78.126831	992.091797
1792.492400	99.037994	70.704269	998.520752
1792.495729	84.075974	61.528351	1004.949707
1792.499060	67.886612	52.410866	1010.151367
1792.502399	52.632378	43.702515	1013.716553
1792.505730	37.553474	34.526596	1017.515503
1792.509061	21.188778	25.642897	1020.905396
1792.512401	5.116306	16.759203	1023.126343
1792.515728	-10.254824	7.407948	1024.938110
1792.519057	-25.801285	-1.943308	1023.476929
1792.522392	-41.055519	-10.768557	1024.411987
1792.525751	-56.192867	-20.821157	1023.067871
1792.529062	-71.037994	-29.763296	1020.320923
1792.532396	-85.766220	-38.237873	1017.573975
1792.535728	-99.909988	-47.180012	1013.190552
1792.539060	-114.872009	-56.297485	1009.157837
1792.542389	-129.074234	-64.304504	1004.014648
1792.545723	-142.633560	-72.779076	997.176514
1792.549090	-156.017548	-80.902977	991.390381
1792.552390	-169.576859	-89.026878	983.383423
1792.555723	-182.785507	-97.033897	975.259521
1792.559058	-196.169495	-104.865578	967.018799
1792.562392	-207.917023	-111.703682	957.258423
1792.565719	-220.190521	-118.950905	947.673218
1792.569057	-231.821152	-126.022789	936.393311
1792.572386	-243.627106	-132.510239	923.476929
1792.575721	-255.023956	-139.289886	912.138550
1792.579052	-265.018127	-146.244888	899.748047
1792.582386	-275.304504	-151.855652	887.240845
1792.585722	-285.766235	-157.232620	871.694336
1792.589052	-295.175934	-163.369385	858.076538
1792.592393	-304.351868	-168.687912	844.517334
1792.595720	-312.475739	-172.895966	829.438354
1792.599059	-320.482758	-177.805374	814.593262
1792.602386	-328.197540	-182.188782	800.332642
1792.605724	-334.977234	-186.513733	782.740601
1792.609046	-341.347748	-190.312683	767.544678
1792.612389	-347.367615	-194.111633	753.225586
1792.615715	-352.160156	-197.326126	736.510254
1792.619054	-357.127991	-200.774414	720.379272
1792.622412	-361.920532	-203.696671	705.709595
1792.625718	-365.953247	-205.859146	690.455322
1792.629051	-369.167725	-208.255417	674.791992
1792.632387	-372.206909	-210.534775	659.420776
1792.635722	-374.603149	-211.995911	644.634155
1792.639055	-376.824097	-214.099945	629.321411
1792.642383	-378.460541	-214.801285	614.943848
1792.645717	-379.045013	-216.145523	600.274170
1792.649053	-380.389252	-217.080658	586.539429
1792.652381	-380.798401	-218.600235	571.577393
1792.655714	-381.324402	-218.834015	558.894775
1792.659045	-381.558167	-218.892471	544.283447
1792.662383	-381.733521	-219.243134	530.957886
1792.665737	-380.506134	-219.827591	517.457031
1792.669052	-379.804810	-219.827591	505.475739
1792.672383	-379.103455	-219.301590	492.734650
1792.675710	-377.583862	-219.184692	480.461121
1792.679047	-376.473389	-218.424911	467.778503
1792.682380	-374.836945	-218.015778	455.271210
1792.685708	-373.317352	-216.671539	442.354767
1792.689045	-371.330200	-216.203979	431.893066
1792.692373	-369.343079	-214.742844	419.853302
1792.695711	-367.063721	-213.573929	409.391602
1792.699045	-365.193451	-212.580368	398.053162
1792.702411	-362.914093	-211.586807	388.760376
1792.705712	-360.225616	-210.184113	377.421967
1792.709046	-358.004700	-208.547638	365.908234
1792.712379	-355.257751	-207.203384	356.206329
1792.715710	-352.101715	-205.566925	346.504364
1792.719045	-349.530090	-203.872009	337.094696
1792.722373	-346.783173	-202.235550	327.451202
1792.725707	-344.328461	-200.832840	317.281708
1792.729038	-340.354187	-197.910583	308.924042
1792.732373	-337.548798	-196.800125	299.923431
1792.735710	-334.860321	-194.579193	291.156616
1792.739091	-331.236694	-193.001175	282.331390
1792.742378	-328.840454	-190.955582	274.265930
1792.745741	-325.216827	-188.910004	265.674469
1792.749039	-322.060791	-187.098190	259.187042
1792.752400	-318.437164	-185.695511	251.939789
1792.755706	-315.047333	-183.533035	244.225037
1792.759037	-312.709534	-181.955002	236.744019
1792.762368	-308.793701	-180.143188	231.133240
1792.765714	-306.572784	-178.039154	224.821167
1792.769041	-302.715363	-176.694916	218.742844
1792.772368	-299.559326	-175.116898	213.482758
1792.775707	-296.227936	-173.480423	207.287552
1792.779038	-292.954987	-172.136185	201.910583
1792.782365	-290.149628	-170.791946	196.884277
1792.785703	-287.168915	-168.571030	191.273514
1792.789030	-284.129761	-167.460556	186.422562
1792.792365	-281.733490	-165.356522	182.156067
1792.795707	-277.876099	-164.479843	177.831100
1792.799031	-275.479828	-162.843369	173.506134
1792.802364	-271.622437	-160.680893	169.181183
1792.805700	-269.518433	-159.862671	165.148453
1792.809041	-266.713043	-157.875519	160.881943
1792.812363	-264.725891	-156.297501	157.082993
1792.815695	-261.803619	-155.362366	153.810059
1792.819030	-259.173584	-154.251907	151.121567
1792.822368	-256.894196	-152.907654	147.088837
1792.825698	-254.264191	-151.271194	143.815903
1792.829032	-251.809479	-149.985397	141.127411
1792.832400	-249.705444	-148.758041	137.737579
1792.835693	-247.542969	-147.530685	134.639984
1792.839032	-246.198730	-146.127991	131.951492
1792.842365	-243.393341	-144.725311	128.327881
1792.845696	-241.055542	-143.673294	126.223846
1792.849023	-239.126831	-142.329056	122.834015
1792.852366	-236.555237	-140.692581	119.794861
1792.855691	-234.860321	-139.114563	117.573944
1792.859030	-232.814743	-137.711868	115.411453
1792.862364	-230.418472	-136.601395	113.365860
1792.865689	-228.723557	-135.490936	109.625366
1792.869030	-226.677963	-134.205154	107.872009
1792.872360	-225.099945	-132.860901	105.241966
1792.875712	-223.697250	-131.575104	103.430161
1792.879021	-221.184113	-130.756866	101.735245
1792.882397	-219.372299	-129.529526	98.812973
1792.885691	-217.969604	-129.120392	96.884285
1792.889027	-216.099365	-127.425476	94.721802
1792.892355	-214.813568	-126.198135	92.734657
1792.895692	-212.767975	-126.022789	90.747520
1792.899024	-211.599060	-125.087662	89.286385
1792.902359	-210.079483	-123.918755	87.533020
1792.905685	-208.443024	-123.217415	85.428986
1792.909025	-206.865005	-122.632965	84.201630
1792.912362	-205.579208	-121.697838	83.091171
1792.915693	-204.877853	-121.522507	82.039162
1792.919057	-203.299835	-120.879601	79.935135
1792.922356	-202.130920	-120.353600	79.116890
1792.925684	-200.845123	-120.002922	78.064880
1792.929020	-199.910004	-119.184685	77.363533
1792.932352	-198.565750	-118.834015	75.843948
1792.935686	-197.864410	-118.600235	74.791939
1792.939021	-196.987732	-118.424896	74.149033
1792.942352	-195.760376	-117.431328	73.447693
1792.945684	-195.000580	-117.139099	72.571014
1792.949034	-194.708374	-116.729980	72.454124
1792.952346	-193.890121	-115.853302	71.518997
1792.955683	-193.247223	-116.203972	71.109879
1792.959026	-192.779663	-115.035065	71.051437
1792.962362	-191.669205	-115.151955	69.940971
1792.965683	-191.493866	-114.567505	69.590302
1792.969017	-190.441849	-114.684395	69.473404
1792.972346	-190.208084	-113.866158	68.655174
1792.975679	-189.740509	-113.457047	68.421394
1792.979014	-189.506714	-113.340149	68.187607
1792.982355	-188.863831	-113.398598	67.895378
1792.985684	-188.454697	-112.580360	67.544708
1792.989013	-187.753372	-112.814140	66.492691
1792.992355	-187.870270	-112.229691	66.668030
1792.995680	-187.052017	-111.411453	66.317360
1792.999011	-186.818237	-111.411453	66.258911
1793.002349	-186.818237	-111.177673	65.791351
1793.005680	-186.292221	-111.353012	65.090004
1793.009013	-186.350677	-111.177673	64.739334
1793.012349	-185.532455	-110.943893	65.090004
1793.015680	-185.766220	-110.943893	63.921097
1793.019010	-185.298660	-110.476326	64.213326
1793.022369	-185.181763	-109.950317	64.447105
1793.025694	-185.415558	-110.476326	63.804207
1793.029020	-184.947998	-110.710106	63.687317
1793.032343	-185.357086	-110.710106	63.804207
1793.035683	-185.064880	-110.593216	63.511986
1793.039007	-185.941559	-110.885445	63.044418
1793.042342	-186.000015	-111.353012	63.628876
1793.045681	-185.357086	-111.177673	63.979546
1793.049004	-185.473984	-111.469902	64.271767
1793.052336	-186.058456	-110.943893	64.388664
1793.055678	-185.883118	-111.995903	64.213326
1793.059008	-186.935135	-112.054352	64.739334
1793.062344	-186.993576	-112.521919	65.206894
1793.065683	-187.110474	-112.288139	66.200470
1793.069011	-187.636475	-113.047920	65.908241
1793.072339	-188.279373	-113.340149	66.609581
1793.075668	-188.454697	-113.047920	67.369377
1793.079009	-189.682053	-114.742844	68.421394
1793.082336	-190.149612	-114.742844	68.772064
1793.085669	-190.850967	-115.502625	70.057861
1793.089004	-191.318542	-115.794853	70.525421
1793.092364	-192.019867	-116.145531	71.051437
1793.095669	-193.013458	-117.139099	71.928108
1793.099007	-194.065445	-117.723549	73.330803
1793.102357	-195.175934	-118.308006	74.149033
1793.105669	-195.292801	-118.892456	75.201050
1793.109004	-196.695496	-119.827583	76.779076
1793.112335	-197.630615	-120.119812	77.421974
1793.115667	-198.916443	-120.236702	78.532440
1793.119003	-199.267105	-121.405609	79.876686
1793.122335	-201.254242	-121.814720	80.636475
1793.125672	-202.364700	-122.457634	81.045593
1793.129006	-203.007599	-123.509644	82.915840
1793.132337	-204.351852	-123.684975	84.201630
1793.135666	-205.812973	-123.918755	86.130333
1793.138995	-206.865005	-125.087662	86.714790
1793.142330	-208.326126	-125.730568	87.883698
1793.145691	-209.611923	-126.431915	88.701927
1793.149001	-210.430176	-126.899475	90.864403
1793.152341	-212.300415	-128.126816	91.682648
1793.155664	-213.410873	-128.594391	93.026886
1793.159002	-214.988892	-129.178848	94.546463
1793.162332	-216.800720	-130.873764	95.598480
1793.165702	-217.209808	-131.750443	98.111626
1793.168994	-218.670959	-132.334900	100.449440
1793.172325	-220.658081	-133.912918	101.209236
1793.175668	-222.586792	-134.672714	103.547043
1793.178996	-223.931046	-136.075394	105.358864
1793.182324	-225.567505	-136.835175	108.339569
1793.185662	-228.022217	-137.653427	110.443604
1793.189023	-229.658676	-139.173004	113.307434
1793.192330	-231.178253	-140.984802	114.768570
1793.195662	-233.399170	-142.153717	117.398590
1793.198997	-234.977234	-143.614853	119.970184
1793.202329	-237.139679	-145.075974	123.418472
1793.207004	-241.932190	-148.348923	128.620117
1793.210356	-244.094696	-149.868500	131.425491
1793.213697	-246.666290	-150.862076	135.224442
1793.217008	-249.588531	-152.556992	138.146698
1793.220360	-251.575684	-154.076569	142.763885
1793.223745	-254.088837	-155.479248	146.095261
