time (s)	magX	magY	magZ
3012.486993	329.519562	-183.972534	546.225586
3012.490354	329.227325	-183.855637	560.895386
3012.493664	327.590881	-182.978958	576.324951
3012.497141	326.305084	-182.336075	592.864990
3012.500488	323.791931	-181.926941	609.288086
3012.503834	321.980133	-180.582703	624.659241
3012.507154	318.648743	-179.472244	640.790161
3012.510483	315.258911	-178.011108	656.570435
3012.513852	311.284637	-176.316193	673.285767
3012.517209	307.076569	-174.445938	689.124451
3012.520523	302.400940	-172.809464	704.437134
3012.523822	297.666840	-170.237869	719.691406
3012.527103	291.763855	-167.666275	734.010498
3012.530427	286.562225	-163.984222	749.440063
3012.533774	279.782562	-160.828171	764.869629
3012.537160	273.236694	-158.081253	779.714783
3012.540488	266.164825	-153.639404	793.332520
3012.543861	258.157806	-149.372894	807.885376
3012.547193	249.916992	-144.463486	820.801880
3012.550530	241.793091	-139.086487	834.770325
3012.553850	232.792511	-134.878433	846.284058
3012.557211	223.324356	-129.209229	858.616028
3012.560580	213.154877	-123.072472	870.597290
3012.563906	203.043823	-116.818825	880.883606
3012.567217	192.231445	-110.506729	890.994690
3012.570604	181.068375	-103.902397	900.930420
3012.573934	169.554642	-96.830513	908.995850
3012.577296	157.982452	-89.291061	916.535339
3012.580568	145.475159	-81.284042	924.133240
3012.583927	132.149612	-73.393921	930.036194
3012.587299	119.116310	-65.094681	936.757385
3012.590595	105.556992	-56.970779	940.907043
3012.593923	91.179428	-48.671539	944.530640
3012.597220	77.795448	-40.313850	948.738708
3012.600573	63.476330	-31.137932	950.316772
3012.603928	49.332554	-23.189363	950.550476
3012.607243	34.545879	-12.961426	950.199829
3012.610557	19.700760	-4.603741	949.673889
3012.613934	3.920515	4.163061	947.862061
3012.617255	-10.807714	13.514318	944.764465
3012.620616	-25.652832	21.521334	940.790100
3012.623937	-40.147282	30.229689	936.172974
3012.627247	-55.109291	38.470482	929.159607
3012.630621	-69.194618	47.295731	922.964294
3012.633936	-82.929276	55.127403	916.593750
3012.637281	-97.715958	62.783745	909.112793
3012.640585	-110.515480	70.966103	899.761536
3012.643932	-124.308586	78.271774	890.702454
3012.647281	-136.991241	85.577438	879.831665
3012.650590	-149.790771	92.824661	869.486816
3012.653898	-161.362946	99.779655	857.914673
3012.657246	-172.993576	107.085327	847.277588
3012.660561	-183.864410	113.748093	834.828674
3012.663973	-194.384567	120.469315	821.678467
3012.667275	-204.787842	126.722961	808.937500
3012.670614	-213.846893	132.158386	795.962585
3012.674004	-223.490372	137.886017	781.059021
3012.677334	-230.912918	143.263000	767.616577
3012.680638	-239.270599	148.873764	753.589722
3012.684085	-246.459381	154.016953	739.562805
3012.687382	-254.291077	158.692581	725.535889
3012.690703	-260.836945	163.543533	710.457031
3012.694050	-266.389252	167.985397	696.020996
3012.697429	-272.116882	172.018112	681.292786
3012.700721	-277.552307	175.875504	666.447693
3012.704081	-282.169495	179.206894	650.784363
3012.707394	-287.078918	182.421387	635.997681
3012.710351	-290.644073	185.109879	620.743408
3012.714066	-293.858582	188.324387	605.430725
3012.717385	-296.897736	190.837524	590.527161
3012.720730	-300.404449	192.357086	574.863831
3012.724036	-303.034485	194.052002	559.784851
3012.727486	-304.670959	195.980713	546.517761
3012.730783	-306.658081	197.734070	530.971313
3012.734083	-308.294586	198.610764	516.126221
3012.737428	-309.580353	199.545883	502.157806
3012.740771	-310.340149	199.487427	487.371124
3012.744073	-310.807709	200.188782	474.162506
3012.747498	-311.158386	199.662750	459.668030
3012.750797	-310.573944	199.545883	445.407349
3012.754110	-311.275269	198.610764	432.666260
3012.757439	-309.989502	198.143204	419.165375
3012.760755	-310.047913	198.318527	406.599640
3012.764093	-308.762146	196.915848	395.027466
3012.767461	-307.476349	195.688492	382.578644
3012.770782	-306.307434	194.402695	372.058441
3012.774052	-305.138519	192.883102	359.551147
3012.777394	-303.852722	191.889526	348.797211
3012.780738	-301.398041	190.428406	338.277039
3012.784115	-299.352417	189.084152	327.289307
3012.787426	-298.008179	187.038559	317.528931
3012.790827	-295.436584	185.869675	307.651672
3012.794119	-294.033905	184.350082	298.008209
3012.797059	-291.929871	182.538284	288.598480
3012.800799	-289.007599	181.135590	280.240814
3012.804073	-285.851562	179.265350	271.240234
3012.807412	-283.455292	178.388657	263.350098
3012.810812	-280.825256	176.226181	255.459946
3012.814164	-277.552307	174.881943	247.452957
3012.817088	-275.156067	172.661026	239.738144
3012.820412	-271.883118	170.966095	232.783157
3012.824147	-268.960846	169.329636	225.477478
3012.827492	-266.389252	167.751617	218.756271
3012.830787	-263.233185	166.465805	212.327286
3012.834159	-260.194061	165.063126	205.547623
3012.837448	-256.862640	162.783752	199.001740
3012.840821	-254.700165	160.855057	193.507889
3012.844097	-251.251892	159.393921	186.552887
3012.847425	-248.621857	156.822327	180.649902
3012.850747	-245.173584	155.244308	175.331375
3012.854129	-242.368210	153.315598	169.895966
3012.857479	-239.329041	151.503799	164.694321
3012.860802	-236.289902	149.282867	160.310928
3012.864104	-233.133850	147.412628	154.291046
3012.867474	-229.919357	145.425476	148.329636
3012.870776	-228.107544	143.730576	143.654007
3012.874179	-225.711288	142.210983	139.796600
3012.877482	-223.256577	140.866745	135.588547
3012.880799	-219.749878	138.528931	131.088242
3012.884131	-217.119827	136.717117	126.412621
3012.887436	-215.015778	134.963760	122.672127
3012.890781	-212.268845	132.918182	119.866753
3012.894061	-210.457047	131.398590	115.308006
3012.897434	-207.417877	129.937454	111.625954
3012.900834	-205.489197	128.125656	108.820580
3012.904113	-203.502045	126.138504	105.547630
3012.907452	-200.462906	125.028046	101.924026
3012.910827	-198.826416	123.333130	99.527763
3012.914168	-195.787277	121.988892	96.079491
3012.917539	-194.209229	120.878433	93.449448
3012.920882	-192.046753	119.300400	90.527176
3012.924221	-189.475174	117.780823	87.429565
3012.927111	-188.364716	116.904144	85.208649
3012.930489	-185.851547	115.910583	83.864410
3012.933817	-184.098206	114.566345	81.292816
3012.937133	-182.111053	112.871414	78.721214
3012.940934	-179.948578	111.760963	77.026299
3012.943834	-178.662781	110.825821	74.746933
3012.947201	-176.734085	110.066048	73.227356
3012.950500	-175.156067	108.721794	70.597313
3012.953817	-173.227356	107.552887	69.019287
3012.957590	-172.000000	106.267097	67.382812
3012.960923	-169.954422	105.507301	65.921684
3012.963888	-168.259506	105.331970	64.343658
3012.967200	-166.739914	104.221512	62.940971
3012.970526	-165.395676	102.877258	60.836937
3012.973875	-163.233200	101.825249	60.135597
3012.977208	-162.298080	101.182343	58.616013
3012.980517	-160.427826	100.539444	57.271767
3012.983879	-159.317368	99.312088	55.518410
3012.987220	-157.330215	98.201630	54.407951
3012.990532	-156.395096	98.026299	53.122154
3012.993864	-154.992401	96.974274	52.187019
3012.997162	-153.648163	95.980713	50.784332
3013.000531	-152.888367	96.039154	50.199883
3013.003872	-151.719467	93.759789	48.855644
3013.007239	-150.959686	94.110466	46.810051
3013.010562	-149.615433	92.532433	45.933372
3013.013867	-148.271194	92.473984	45.290474
3013.017240	-147.336075	91.129745	43.887787
3013.020592	-145.816483	90.019287	43.011101
3013.023896	-145.465820	89.843956	42.894211
3013.027324	-144.004684	89.434830	41.433083
3013.030644	-143.361786	88.850380	41.257744
3013.033954	-141.608414	88.149033	39.212158
3013.037265	-141.666870	87.272354	39.153709
3013.040565	-140.673294	86.454117	39.270599
3013.043965	-140.439514	85.635887	37.867912
3013.047316	-139.445938	85.577438	37.575691
3013.050649	-138.861496	85.518990	36.465225
3013.054053	-138.510818	84.408531	36.465225
3013.057363	-137.809464	83.882523	35.237877
3013.060711	-137.400360	84.057854	34.887199
3013.064045	-136.523682	83.765633	34.594971
3013.067410	-135.588547	83.531853	34.127411
3013.070753	-135.997665	82.772057	33.893631
3013.074115	-135.530106	82.362946	33.542953
3013.077448	-135.179443	82.655167	33.484505
3013.080780	-134.361191	82.421387	32.958504
3013.084096	-133.893631	82.012268	32.666275
3013.087453	-133.893631	81.310928	32.140266
3013.090825	-133.309189	81.661598	32.023376
3013.094160	-132.549393	81.836929	31.789595
3013.097493	-132.374069	81.778488	31.672705
3013.100878	-131.848053	81.369370	31.731150
3013.104226	-131.964935	81.427818	31.555815
3013.107608	-131.906494	81.252480	31.848040
3013.110994	-132.140274	81.310928	31.146696
3013.114307	-131.731155	82.070717	31.497366
3013.117596	-131.146713	81.720039	31.263586
3013.120913	-131.614273	81.486259	31.146696
3013.124259	-130.796036	81.544708	30.620691
3013.127634	-130.620697	81.252480	31.205145
3013.130976	-130.503799	81.310928	30.270018
3013.134289	-131.029816	81.369370	30.562243
3013.137644	-130.854477	80.492691	30.270018
3013.140965	-130.679138	81.310928	30.386908
3013.144353	-130.796036	80.960258	30.562243
3013.147703	-131.614273	81.077148	30.386908
3013.150608	-131.146713	81.544708	30.796022
3013.153958	-131.146713	81.310928	30.445353
3013.157280	-131.380493	81.194038	30.679132
3013.160607	-131.614273	80.492691	31.088251
3013.163946	-131.964935	81.252480	30.737581
3013.167710	-131.964935	81.486259	30.796022
3013.171085	-132.490952	81.427818	31.555815
3013.173926	-132.900055	81.486259	32.140266
3013.177315	-133.192291	81.836929	32.724724
3013.180651	-133.367630	82.655167	32.198708
3013.184002	-133.484528	82.421387	32.958504
3013.187344	-134.536530	82.538277	32.490944
3013.190744	-134.302750	83.064285	33.075394
3013.194045	-135.530106	82.772057	33.309174
3013.197407	-135.763885	83.473404	33.835182
3013.200757	-136.173004	83.882523	34.010521
3013.204073	-136.991241	84.350082	34.945648
3013.207380	-137.751038	84.583870	35.880768
3013.210701	-138.686157	85.402107	36.172997
3013.214022	-139.153717	86.278786	37.283455
3013.217455	-140.030396	86.804794	37.984802
3013.220747	-140.088852	87.272354	38.452362
3013.224055	-141.491531	87.330795	40.322617
3013.227402	-142.485107	88.324371	40.088837
3013.230738	-143.361786	88.616600	41.433083
3013.234113	-143.361786	89.317940	42.017532
3013.237412	-144.530685	89.668610	41.959084
3013.240799	-145.816483	90.194618	42.660431
3013.244134	-146.342499	91.655754	43.361778
3013.247476	-147.452957	91.889534	44.706017
3013.250819	-148.212738	92.181763	45.290474
3013.254225	-149.556992	92.649330	46.634720
3013.257605	-150.199890	93.993568	47.043831
3013.260962	-151.135025	94.753357	47.862068
3013.264310	-151.836365	94.870247	48.738754
3013.267286	-153.531281	95.630035	50.433662
3013.271034	-154.641739	96.623611	51.018120
3013.274377	-155.284637	97.208061	51.719460
3013.277312	-157.271774	98.143181	53.472824
3013.280630	-158.382233	98.727646	55.109299
3013.283980	-160.077164	99.545876	55.459969
3013.287305	-161.479843	100.305664	56.628876
3013.290641	-162.356522	101.007011	58.265343
3013.294019	-163.876114	102.175919	59.434250
3013.297386	-165.220352	103.929283	61.538284
3013.300721	-167.090591	104.513725	63.116310
3013.304166	-168.785522	105.741081	64.694328
3013.307483	-170.538864	106.267097	66.564583
3013.310775	-173.285812	107.377556	67.791939
3013.314158	-174.571594	108.604904	69.837517
3013.317479	-175.740509	109.540031	72.116890
3013.320805	-177.610764	110.182930	74.162483
3013.324133	-180.065460	111.176506	76.500298
3013.327424	-181.468155	113.163651	78.779655
3013.330797	-184.215088	115.209229	81.175919
3013.334068	-185.383987	115.735245	83.981300
3013.337389	-187.663361	117.196365	86.260658
3013.340723	-190.001175	119.008179	89.533615
3013.344012	-192.338989	120.235519	92.046761
3013.347457	-194.326126	121.813553	95.378143
3013.350790	-196.605499	123.216248	98.709534
3013.354102	-199.177094	125.203384	101.339561
3013.357511	-201.105804	126.489182	104.437172
3013.360824	-203.560486	128.184097	108.119240
3013.364081	-205.021637	129.703674	111.509056
3013.367464	-207.651672	131.690826	115.132683
3013.370763	-210.632385	132.859726	118.931618
3013.374140	-212.736404	134.613083	122.321449
3013.377468	-214.840454	136.366455	126.412621
3013.380780	-217.528931	138.002914	129.568665
3013.384078	-219.399185	140.048508	134.127411
3013.387887	-222.321457	141.042084	138.160141
3013.390843	-224.542374	142.853882	141.374619
3013.394167	-226.587982	144.373459	146.050247
3013.397474	-229.744019	146.535950	150.608994
3013.400815	-232.023392	147.997086	156.219742
3013.404137	-234.828766	149.399765	161.187607
3013.407429	-237.692581	151.270020	165.570999
3013.410783	-240.147293	152.906494	170.947983
3013.414485	-243.011108	154.309174	176.967850
3013.417799	-246.517853	156.471649	182.052597
3013.421085	-249.030975	157.932785	187.955566
3013.424387	-252.187042	159.101685	193.449432
3013.427741	-254.057281	161.497955	199.936874
3013.431053	-257.505554	163.192871	206.599640
3013.434390	-260.427826	165.004669	213.437744
3013.437731	-263.350098	166.874924	220.451187
3013.441094	-266.681458	168.745178	227.289291
3013.444410	-268.259521	170.907654	234.302734
3013.447822	-271.240234	172.427231	242.601974
3013.451096	-274.454712	174.005264	249.907639
3013.454409	-277.260071	175.174164	258.791382
3013.457773	-279.831696	177.336639	267.908844
3013.461057	-282.520172	179.382233	277.084747
3013.464412	-284.741089	181.369370	286.611328
3013.467800	-287.078918	183.356506	295.670380
3013.471073	-290.176514	185.285217	306.248993
3013.474461	-292.105225	186.629456	315.950897
3013.477766	-294.852142	188.382812	326.354187
3013.481094	-296.605499	189.902405	337.575684
3013.484460	-298.534180	191.772659	348.271210
3013.487768	-300.579773	193.000000	359.492706
3013.491173	-301.573364	194.344238	370.421967
3013.494529	-303.268280	195.630051	382.987762
3013.497872	-304.846313	196.915848	394.501465
3013.501174	-305.489197	197.675629	406.775024
3013.504512	-306.482758	198.143204	419.223846
3013.507801	-307.651672	199.370544	431.146698
3013.511075	-307.768585	200.071884	444.472229
3013.514443	-308.645233	200.013443	457.739319
3013.517831	-308.002350	200.188782	472.292236
3013.521115	-308.236145	199.604324	485.033325
3013.524450	-307.125641	199.253647	498.300446
3013.527812	-306.950317	198.961426	511.567535
3013.531071	-306.190521	199.195190	526.237305
3013.534536	-305.313873	198.201630	540.088806
3013.537841	-304.612518	196.915848	553.414368
3013.541116	-302.450012	195.337814	567.558105
3013.544486	-300.755096	193.759796	583.046143
3013.547843	-298.300415	191.655762	597.248352
3013.551115	-295.436584	189.727066	612.561096
3013.554487	-292.105225	187.272354	626.938599
3013.557793	-288.364716	184.116318	642.601929
3013.561145	-283.981323	180.901810	658.090027
3013.564448	-279.481018	178.271774	672.525940
3013.567787	-274.162476	174.297485	688.306213
3013.571090	-268.785522	170.440094	702.333130
3013.574393	-263.174774	166.758041	717.587341
3013.577811	-256.219757	161.731735	732.374023
3013.581122	-248.388092	156.763870	747.452942
3013.584416	-241.199310	151.503799	763.116272
3013.587720	-233.133850	146.243713	777.201599
3013.591017	-224.367035	141.042084	791.520752
3013.594421	-215.892471	135.080643	805.196899
3013.597784	-205.313858	129.177658	819.983643
3013.601091	-195.728821	122.690231	832.783142
3013.604430	-185.150208	115.559906	844.939758
3013.607745	-172.467575	109.247803	857.447083
3013.611064	-161.421402	102.000580	867.733521
3013.614403	-149.147873	95.045593	879.831665
3013.617695	-136.523682	88.032135	889.650452
3013.621039	-123.957909	79.966682	898.651062
3013.624341	-110.457047	72.310341	908.002319
3013.627711	-97.131500	64.537109	916.067749
3013.631016	-83.279953	56.296310	922.263000
3013.634331	-69.720634	48.406197	928.750427
3013.637704	-56.161308	39.756279	935.763855
3013.641075	-41.725307	30.989477	940.848572
3013.644414	-27.698421	22.573347	945.115112
3013.647758	-13.846873	14.332552	947.277588
3013.651101	-0.170660	6.033314	949.264771
3013.654417	15.025131	-2.558153	951.076538
3013.657755	29.636471	-11.500293	951.193481
3013.661066	43.780243	-21.552895	950.842773
3013.664473	57.456459	-28.975452	948.680237
3013.667792	70.898888	-38.151375	946.693176
3013.671067	85.042664	-46.392166	943.653992
3013.674392	98.017540	-54.866745	939.095215
3013.677751	111.576851	-62.698425	933.776672
3013.681105	123.558159	-70.179428	927.523071
3013.684441	136.708359	-77.601982	921.795410
3013.687744	149.332550	-85.784340	914.139099
3013.691091	161.021622	-92.505554	906.307434
3013.694439	173.470490	-99.811226	897.949707
3013.697828	184.925766	-106.766220	888.013977
3013.701097	196.439499	-112.961426	878.019836
3013.704470	207.076553	-119.799530	866.096985
3013.707836	218.005829	-125.118065	854.817017
3013.711092	228.409103	-130.611923	842.718811
3013.714419	238.111023	-136.164230	830.153137
3013.717726	247.520737	-140.839859	816.009338
3013.721074	255.819977	-145.924606	800.755066
3013.724518	264.645233	-149.957336	786.552856
3013.727810	272.126221	-153.990067	771.999939
3013.731129	279.899475	-157.789017	757.622437
3013.734466	286.912903	-161.354187	741.082397
3013.737775	292.874359	-164.802460	726.061951
3013.741087	299.303314	-167.841614	709.697205
3013.744394	304.095856	-170.062546	695.085876
3013.747758	309.414368	-171.932785	679.305664
3013.751151	314.031555	-174.036819	663.291626
3013.754478	317.596741	-176.316193	647.920471
3013.757809	321.220337	-178.127991	631.964905
3013.761117	323.499725	-179.238464	616.886047
3013.764406	326.305084	-180.290466	601.514893
3013.767855	328.467560	-181.634720	586.845093
3013.771167	330.571594	-182.978958	571.240173
3013.774512	331.740479	-183.271194	554.817017
3013.777892	332.617187	-184.206314	540.790161
3013.781211	333.143188	-184.615433	526.178833
3013.784536	333.026306	-184.323196	512.327271
3013.787886	333.902954	-184.673874	497.540619
3013.791187	333.026306	-185.433655	483.338409
3013.794539	332.617187	-184.673874	469.545288
3013.797835	331.915833	-184.089417	456.102875
3013.801113	331.331390	-183.504974	441.199310
3013.804465	329.227325	-183.329636	428.867371
3013.807754	327.590881	-182.978958	415.775543
3013.811198	325.720642	-181.751602	404.203400
3013.814523	323.850372	-181.342499	392.046753
3013.817829	322.155457	-179.413803	380.007050
3013.821208	319.759186	-178.887787	369.077759
3013.824536	316.836945	-179.063110	357.330231
3013.827853	314.499115	-177.426651	346.050293
3013.831197	311.635284	-175.790176	335.354767
3013.834536	308.888367	-175.030396	324.600830
3013.837874	306.199860	-173.569260	314.782013
3013.841210	303.978943	-171.757462	304.904755
3013.844548	300.939789	-169.828766	295.027496
3013.847927	298.251312	-168.250732	285.325531
3013.851290	295.738159	-166.906494	276.032715
3013.854579	291.588531	-165.153137	266.447693
3013.857892	288.958496	-162.756866	258.206909
3013.861263	285.510223	-161.120407	249.323196
3013.864603	282.237274	-159.133255	241.783737
3013.867910	279.373474	-157.496780	232.900055
3013.871269	276.451202	-156.269424	225.828171
3013.874648	273.353577	-153.405624	219.282303
3013.877538	270.022217	-151.301575	211.333710
3013.881287	266.457062	-149.781998	204.378723
3013.884583	263.826996	-148.729980	197.189926
3013.887929	260.378723	-146.450607	191.286972
3013.891361	257.398010	-144.405029	185.150192
3013.894666	253.832855	-143.586792	179.890106
3013.897554	251.962601	-140.722961	173.110458
3013.901297	248.806534	-139.144943	167.558151
3013.904607	245.416702	-137.566925	162.882523
3013.907958	242.260651	-135.930450	157.914658
3013.911258	239.163055	-133.943298	153.648148
3013.914619	236.591461	-132.131500	148.621841
3013.917995	233.786087	-131.371704	144.589127
3013.921294	230.513153	-130.495026	140.614838
3013.924619	227.766220	-128.566330	135.646988
3013.927995	225.253067	-127.514328	132.023376
3013.931344	222.681458	-125.702515	128.224426
3013.934705	219.876083	-125.059616	123.957924
3013.937582	216.836945	-123.715378	120.626534
3013.940964	214.148437	-122.312691	117.061378
3013.944267	212.044418	-120.617767	114.665108
3013.948008	209.472824	-119.507309	110.340157
3013.951323	206.842773	-117.870842	108.002342
3013.954666	205.206314	-117.520164	105.021629
